
timestamp,forearm_sEMG,upperarm_sEMG,joint_angle
1742389210.1269083,1126,1146,180
1742389210.1269083,1083,1152,180
1742389210.1279047,1129,1148,180
1742389210.1279047,1130,1153,180
1742389210.1309066,1140,1177,180
1742389210.132903,1142,1176,180
1742389210.132903,1152,1161,180
1742389210.1349046,1138,1133,180
1742389210.1364129,1121,1142,180
1742389210.1374261,1124,1150,180
1742389210.1384263,1129,1163,180
1742389210.1394222,1140,1180,180
1742389210.1434252,1138,1176,180
1742389210.1444275,1122,1145,180
1742389210.146938,1117,1137,180
1742389210.1489542,1116,1149,180
1742389210.149951,1107,1152,180
1742389210.149951,1140,1167,180
1742389210.1509514,1144,1174,180
1742389210.152949,1128,1162,180
1742389210.1549523,1119,1162,180
1742389210.1559498,1115,1138,180
1742389210.1584687,1127,1146,180
1742389210.162468,1130,1173,180
1742389210.16347,1140,1120,180
1742389210.16347,1158,1170,180
1742389210.1654692,1120,1149,180
1742389210.1654692,1115,1086,180
1742389210.1664739,1115,1150,180
1742389210.1664739,1125,1146,180
1742389210.1744719,1207,1170,180
1742389210.1774707,1144,1172,180
1742389210.1814666,1130,1157,180
1742389210.1824713,1126,1135,180
1742389210.1824713,1119,1133,180
1742389210.1839864,1120,1141,180
1742389210.1839864,1130,1154,180
1742389210.1850011,1140,1173,180
1742389210.1870053,1137,1166,180
1742389210.1900048,1119,1146,180
1742389210.1920016,1053,1125,180
1742389210.196605,1116,1139,180
1742389210.198537,1124,1176,180
1742389210.1995347,1131,1157,180
1742389210.2005384,1142,1172,180
1742389210.2015324,1132,1158,180
1742389210.2015324,1121,1148,180
1742389210.2035334,1125,1132,180
1742389210.205533,1121,1142,180
1742389210.2090547,1125,1154,180
1742389210.212057,1133,1171,180
1742389210.215052,1138,1100,180
1742389210.2175603,1123,1142,180
1742389210.2175603,1036,1155,180
1742389210.2185698,1110,1139,180
1742389210.2185698,1160,1149,180
1742389210.2185698,1130,1158,180
1742389210.2185698,1079,1184,180
1742389210.2185698,1134,1174,180
1742389210.2185698,1105,1136,180
1742389210.2185698,1111,1132,180
1742389210.21957,1121,1142,180
1742389210.21957,1126,1152,180
1742389210.21957,1135,1168,180
1742389210.222571,1136,1171,180
1742389210.22457,1082,1159,180
1742389210.225571,1103,1135,180
1742389210.2265718,1102,1138,180
1742389210.229089,1118,1146,180
1742389210.2310872,1152,1166,180
1742389210.2320907,1143,1103,180
1742389210.2340884,1139,1164,180
1742389210.2360904,1062,1143,180
1742389210.2385967,1055,1138,180
1742389210.2406068,1060,1145,180
1742389210.2406068,1125,1150,180
1742389210.2416062,1135,1167,180
1742389210.2416062,1135,1170,180
1742389210.242606,1121,1154,180
1742389210.2436059,1112,1138,180
1742389210.2466059,1117,1135,180
1742389210.2491128,1119,1142,180
1742389210.2511208,1126,1179,180
1742389210.2521226,1140,1088,180
1742389210.2521226,1134,1168,180
1742389210.253123,1124,1145,180
1742389210.2561219,1116,1133,180
1742389210.2571206,1113,1136,180
1742389210.2581213,1123,1150,180
1742389210.2601225,1130,1158,180
1742389210.2611234,1134,1161,180
1742389210.2621217,1127,1144,180
1742389210.2651224,1114,1073,180
1742389210.2671225,1110,1126,180
1742389210.269121,1116,1135,180
1742389210.2711215,1130,1158,180
1742389210.2721245,1139,1160,180
1742389210.2731225,1139,1154,180
1742389210.2731225,1122,1136,180
1742389210.274631,1114,1124,180
1742389210.2776415,1128,1127,180
1742389210.2786427,1130,1134,180
1742389210.2806394,1134,1089,180
1742389210.2826412,1138,1160,180
1742389210.2836404,1126,1148,180
1742389210.2836404,1121,1124,180
1742389210.2861557,1113,1120,180
1742389210.287155,1115,1130,180
1742389210.2891538,1123,1142,180
1742389210.2901564,1144,1157,180
1742389210.2921567,1143,1155,180
1742389210.2921567,1128,1130,180
1742389210.296156,1116,1117,180
1742389210.2981553,1116,1115,180
1742389210.2991552,1125,1156,180
1742389210.3001566,1135,1147,180
1742389210.3031583,1124,1150,180
1742389210.3041556,1131,1146,180
1742389210.3056633,1157,1090,180
1742389210.307673,1115,1122,180
1742389210.309674,1114,1129,180
1742389210.309674,1129,1136,180
1742389210.310673,1136,1177,180
1742389210.310673,1050,1162,180
1742389210.3136735,1069,1145,180
1742389210.3146737,1116,1119,180
1742389210.3161826,1114,1122,180
1742389210.3171916,1120,1135,180
1742389210.319189,1128,1150,180
1742389210.3201911,1142,1164,180
1742389210.323192,1141,1151,180
1742389210.3241906,1119,1129,180
1742389210.325189,1110,1127,180
1742389210.3277056,1114,1135,180
1742389210.328705,1124,1137,180
1742389210.329706,1135,1246,180
1742389210.3327045,1139,1138,180
1742389210.3337078,1128,1145,180
1742389210.3357055,1113,1126,180
1742389210.336707,1117,1125,180
1742389210.3377056,1122,1109,180
1742389210.3387058,1130,1211,180
1742389210.3417618,1139,1171,180
1742389210.3427055,1134,1161,180
1742389210.344705,1122,1123,180
1742389210.3467054,1113,1128,180
1742389210.3477054,1116,1136,180
1742389210.3487053,1121,1143,180
1742389210.3497055,1137,1165,180
1742389210.3497055,1172,1181,180
1742389210.3532262,1132,1148,180
1742389210.3552256,1118,1127,180
1742389210.356225,1114,1130,180
1742389210.3582253,1082,1138,180
1742389210.3592255,1132,1148,180
1742389210.3612258,1140,1166,180
1742389210.362733,1137,1158,180
1742389210.3637407,1121,1141,180
1742389210.3657424,1113,1127,180
1742389210.3657424,1118,1134,180
1742389210.370741,1108,1139,180
1742389210.3717415,1142,1158,180
1742389210.3737414,1140,1171,180
1742389210.3757415,1136,1167,180
1742389210.378743,1038,1130,180
1742389210.3797417,1117,1128,180
1742389210.3797417,1115,1140,180
1742389210.3797417,1129,1160,180
1742389210.3807423,1143,1166,180
1742389210.3807423,1138,1163,180
1742389210.384262,1124,1032,180
1742389210.3852608,1022,1131,180
1742389210.387264,1230,1133,180
1742389210.3882616,1109,1142,180
1742389210.3892617,1130,1154,180
1742389210.3902614,1143,1168,180
1742389210.3922641,1134,1147,180
1742389210.3947833,1117,1134,180
1742389210.3967834,1100,1128,180
1742389210.398783,1119,1136,180
1742389210.4007816,1127,1145,180
1742389210.4017816,1136,1196,180
1742389210.4017816,1138,1170,180
1742389210.4027836,1128,1168,180
1742389210.4077828,1114,1072,180
1742389210.4087834,1115,1132,180
1742389210.4107814,1121,1174,180
1742389210.41178,1132,1157,180
1742389210.4127812,1146,1167,180
1742389210.4127812,1138,1149,180
1742389210.415297,1142,1137,180
1742389210.4162972,1114,1133,180
1742389210.417298,1122,1141,180
1742389210.4192975,1074,1148,180
1742389210.4202993,1151,1162,180
1742389210.4222987,1147,1167,180
1742389210.4232996,1127,1157,180
1742389210.4232996,1120,1135,180
1742389210.426818,1143,1132,180
1742389210.4288187,1122,1139,180
1742389210.430818,1128,1158,180
1742389210.4318178,1122,1175,180
1742389210.432818,1142,1140,180
1742389210.432818,1126,1141,180
1742389210.436817,1115,1130,180
1742389210.4378166,1116,1172,180
1742389210.438816,1123,1152,180
1742389210.439818,1134,1167,180
1742389210.4418178,1140,1173,180
1742389210.442817,1130,1155,180
1742389210.4438167,1112,1137,180
1742389210.4453242,1112,1139,180
1742389210.448336,1096,1142,180
1742389210.4493358,1138,1156,180
1742389210.4513347,1142,1148,180
1742389210.4543383,1137,1172,180
1742389210.4543383,1084,1142,180
1742389210.4543383,1097,1130,180
1742389210.4578578,1119,1136,180
1742389210.4588568,1127,1145,180
1742389210.460855,1136,1156,180
1742389210.4618537,1140,1177,180
1742389210.4638555,1134,1160,180
1742389210.464854,1127,1136,180
1742389210.4659555,1114,1134,180
1742389210.4668562,1121,1146,180
1742389210.4698558,1134,1164,180
1742389210.4708538,1144,1173,180
1742389210.4738548,1131,1165,180
1742389210.4748542,1130,1151,180
1742389210.4763627,1115,1134,180
1742389210.4763627,1132,1136,180
1742389210.4803715,1127,1147,180
1742389210.4813726,1134,1160,180
1742389210.4823732,1070,1186,180
1742389210.4843712,1133,1162,180
1742389210.4868817,1119,1138,180
1742389210.487892,1117,1135,180
1742389210.4888918,1119,1139,180
1742389210.4898918,1154,1158,180
1742389210.4918911,1140,1171,180
1742389210.4938903,1150,1170,180
1742389210.49589,1132,1150,180
1742389210.497397,1118,1134,180
1742389210.4984074,1111,1142,180
1742389210.499405,1131,1142,180
1742389210.499405,1134,1160,180
1742389210.499405,1140,1167,180
1742389210.5034046,1140,1160,180
1742389210.5034046,1118,1143,180
1742389210.506404,1114,1110,180
1742389210.506404,1122,1135,180
1742389210.5094035,1125,1150,180
1742389210.5114062,1129,1162,180
1742389210.5125709,1129,1171,180
1742389210.5134072,1120,1146,180
1742389210.5154066,1093,1129,180
1742389210.5154066,1135,1135,180
1742389210.518407,1127,1117,180
1742389210.5194058,1126,1159,180
1742389210.5230062,1146,1174,180
1742389210.5239239,1152,1164,180
1742389210.5259252,1129,1142,180
1742389210.5259252,1113,1134,180
1742389210.5289245,1120,1145,180
1742389210.530924,1153,1146,180
1742389210.5334313,1139,1163,180
1742389210.5364418,1144,1165,180
1742389210.5364418,1134,1149,180
1742389210.5364418,1120,1130,180
1742389210.5374413,1119,1138,180
1742389210.5374413,1124,1143,180
1742389210.5404415,1132,1156,180
1742389210.5404415,1095,1176,180
1742389210.5454419,1136,1173,180
1742389210.5474415,1124,1145,180
1742389210.5494418,1118,1134,180
1742389210.5524442,1116,1139,180
1742389210.553952,1120,1151,180
1742389210.5549617,1131,1164,180
1742389210.5549617,1146,1171,180
1742389210.5559626,1134,1154,180
1742389210.5559626,1118,1130,180
1742389210.5569644,1114,1130,180
1742389210.5589643,1121,1143,180
1742389210.5619648,1133,1157,180
1742389210.5644732,1141,1169,180
1742389210.5654833,1128,1167,180
1742389210.5674844,1124,1148,180
1742389210.5684834,1144,1135,180
1742389210.571484,1128,1102,180
1742389210.5754886,1115,1150,180
1742389210.5774865,1134,1158,180
1742389210.5794845,1138,1172,180
1742389210.5794845,1133,1160,180
1742389210.5804827,1027,1135,180
1742389210.5804827,1110,1128,180
1742389210.5814836,1114,1140,180
1742389210.5814836,1126,1165,180
1742389210.5824852,1138,1171,180
1742389210.5824852,1138,1176,180
1742389210.586006,1125,1148,180
1742389210.587005,1113,1133,180
1742389210.5900037,1115,1140,180
1742389210.592004,1121,1145,180
1742389210.594006,1134,1158,180
1742389210.594006,1132,1170,180
1742389210.5975266,1146,1156,180
1742389210.5985281,1118,1137,180
1742389210.600529,1122,1134,180
1742389210.6015291,1134,1141,180
1742389210.6035254,1130,1154,180
1742389210.6035254,1103,1174,180
1742389210.6035254,1139,1170,180
1742389210.6045246,1131,1150,180
1742389210.6055865,1135,1133,180
1742389210.6075258,1124,1135,180
1742389210.608524,1120,1147,180
1742389210.610524,1144,1157,180
1742389210.611527,1145,1151,180
1742389210.6135237,1148,1163,180
1742389210.6135237,1124,1138,180
1742389210.6180403,1123,1134,180
1742389210.6190379,1024,1161,180
1742389210.6210382,1128,1153,180
1742389210.6230383,1140,1165,180
1742389210.6250396,1138,1133,180
1742389210.6275551,1120,1148,180
1742389210.6285546,1094,1132,180
1742389210.6325595,1116,1131,180
1742389210.6325595,1119,1136,180
1742389210.6325595,1128,1146,180
1742389210.633556,1140,1163,180
1742389210.6345572,1133,1156,180
1742389210.6345572,1089,1128,180
1742389210.6355567,1116,1121,180
1742389210.6390724,1115,1123,180
1742389210.641071,1122,1140,180
1742389210.6420753,1120,1156,180
1742389210.6440728,1139,1160,180
1742389210.6450725,1126,1142,180
1742389210.6450725,1112,1122,180
1742389210.6475863,1109,1126,180
1742389210.6477742,1117,1131,180
1742389210.6505961,1128,1141,180
1742389210.6525948,1141,1123,180
1742389210.6535969,1089,1153,180
1742389210.654599,1120,1133,180
1742389210.655596,1116,1135,180
1742389210.6565948,1122,1128,180
1742389210.6581028,1120,1138,180
1742389210.6611137,1042,1156,180
1742389210.6621115,1134,1164,180
1742389210.6631124,1130,1151,180
1742389210.6651118,1113,1129,180
1742389210.6651118,1112,1126,180
1742389210.6671135,1114,1137,180
1742389210.6696286,1136,1145,180
1742389210.6716275,1122,1164,180
1742389210.6726303,1150,1158,180
1742389210.6746304,1120,1132,180
1742389210.6746304,1109,1122,180
1742389210.6776288,1112,1132,180
1742389210.6791377,1143,1138,180
1742389210.6811461,1145,1153,180
1742389210.683147,1135,1161,180
1742389210.6841452,1126,1152,180
1742389210.685148,1110,1132,180
1742389210.686147,1111,1129,180
1742389210.688148,1045,1118,180
1742389210.6896544,1122,1136,180
1742389210.6906629,1129,1165,180
1742389210.6916606,1131,1160,180
1742389210.6926603,1125,1137,180
1742389210.6966615,1108,1177,180
1742389210.6976635,1114,1152,180
1742389210.6986609,1114,1137,180
1742389210.701174,1088,1162,180
1742389210.7021725,1136,1164,180
1742389210.703173,1128,1150,180
1742389210.705174,1111,1124,180
1742389210.706175,1106,1126,180
1742389210.708173,1083,1128,180
1742389210.7091727,1121,1122,180
1742389210.710172,1126,1152,180
1742389210.710172,1133,1168,180
1742389210.7141757,1076,1142,180
1742389210.7152908,1108,1119,180
1742389210.717174,1110,1124,180
1742389210.717174,1097,1096,180
1742389210.7201724,1121,1086,180
1742389210.7201724,1129,1170,180
1742389210.7231743,1125,1174,180
1742389210.7241738,1112,1134,180
1742389210.7266908,1103,1076,180
1742389210.7266908,1106,1133,180
1742389210.7296882,1112,1141,180
1742389210.7316892,1130,1158,180
1742389210.7316892,1134,1162,180
1742389210.7327247,1119,1140,180
1742389210.734726,1107,1126,180
1742389210.734726,1047,1140,180
1742389210.7383094,1115,1135,180
1742389210.7393122,1132,1147,180
1742389210.7413092,1132,1157,180
1742389210.7423143,1122,1135,180
1742389210.744309,1122,1129,180
1742389210.744309,1104,1140,180
1742389210.7478917,1110,1122,180
1742389210.7488894,1115,1128,180
1742389210.7498894,1131,1148,180
1742389210.7508945,1131,1152,180
1742389210.7528949,1125,1132,180
1742389210.7538905,1103,1111,180
1742389210.756892,1107,1114,180
1742389210.7578967,1112,1118,180
1742389210.7599168,1100,1135,180
1742389210.7609012,1106,1149,180
1742389210.76296,1125,1142,180
1742389210.76296,1112,1122,180
1742389210.7658906,1100,1124,180
1742389210.7678878,1107,1118,180
1742389210.7689025,1115,1126,180
1742389210.769902,1125,1117,180
1742389210.7724497,1133,1169,180
1742389210.773556,1122,1139,180
1742389210.7755618,1114,1115,180
1742389210.7765594,1094,1114,180
1742389210.7774944,1110,1122,180
1742389210.7785504,1119,1134,180
1742389210.7815564,1130,1140,180
1742389210.78256,1091,1150,180
1742389210.784078,1122,1131,180
1742389210.785021,1103,1114,180
1742389210.7870235,1104,1123,180
1742389210.7870235,1122,1131,180
1742389210.7910798,1127,1145,180
1742389210.7910798,1140,1157,180
1742389210.7934039,1124,1142,180
1742389210.7940242,1109,1122,180
1742389210.7960927,1105,1043,180
1742389210.7980907,1113,1126,180
1742389210.799085,1120,1134,180
1742389210.801087,1121,1149,180
1742389210.8020854,1130,1153,180
1742389210.8020854,1126,1133,180
1742389210.8057275,1109,1067,180
1742389210.8077998,1108,1120,180
1742389210.8097327,1114,1150,180
1742389210.8107402,1121,1142,180
1742389210.8117344,1134,1156,180
1742389210.8137913,1153,1141,180
1742389210.8143954,1112,1121,180
1742389210.8143954,1107,1113,180
1742389210.8174016,1112,1126,180
1742389210.8184035,1118,1139,180
1742389210.8204012,1131,1080,180
1742389210.8214028,1108,1158,180
1742389210.8245184,1119,1138,180
1742389210.825435,1104,1124,180
1742389210.8264334,1109,1126,180
1742389210.8274367,1112,1136,180
1742389210.830409,1119,1147,180
1742389210.830409,1135,1163,180
1742389210.832441,1130,1158,180
1742389210.833403,1118,1094,180
1742389210.8369145,1111,1124,180
1742389210.8369145,1099,1136,180
1742389210.8389156,1118,1142,180
1742389210.8389156,1125,1160,180
1742389210.8419292,1129,1164,180
1742389210.843916,1124,1167,180
1742389210.845422,1110,1205,180
1742389210.846429,1106,1120,180
1742389210.848431,1114,1140,180
1742389210.8494313,1134,1150,180
1742389210.8514295,1133,1172,180
1742389210.8514295,1132,1162,180
1742389210.8544288,1117,1145,180
1742389210.855431,1113,1128,180
1742389210.858432,1115,1133,180
1742389210.8594291,1119,1099,180
1742389210.8614287,1129,1153,180
1742389210.8614287,1132,1181,180
1742389210.8634286,1122,1152,180
1742389210.8634286,1119,1130,180
1742389210.8669875,1107,1082,180
1742389210.8679838,1113,1134,180
1742389210.869984,1120,1148,180
1742389210.869984,1113,1167,180
1742389210.8729854,1135,1132,180
1742389210.8729854,1118,1136,180
1742389210.874986,1109,1121,180
1742389210.876493,1110,1150,180
1742389210.8786285,1104,1098,180
1742389210.8796322,1182,1183,180
1742389210.882636,1131,1162,180
1742389210.883628,1125,1152,180
1742389210.8856237,1097,1128,180
1742389210.8866282,1072,1119,180
1742389210.8883975,1110,1127,180
1742389210.8883975,1119,1141,180
1742389210.8913915,1130,1157,180
1742389210.8923984,1130,1160,180
1742389210.8943987,1122,1006,180
1742389210.8953938,1107,1122,180
1742389210.8970983,1109,1126,180
1742389210.8970983,1107,1122,180
1742389210.9011467,1117,1151,180
1742389210.9021523,1135,1162,180
1742389210.9041505,1125,1151,180
1742389210.9041505,1111,1128,180
1742389210.9061482,1122,1139,180
1742389210.9071584,1106,1127,180
1742389210.909913,1118,1138,180
1742389210.909913,1130,1149,180
1742389210.9119227,1133,1152,180
1742389210.9139245,1122,1140,180
1742389210.915921,1106,1121,180
1742389210.9174278,1115,1119,180
1742389210.9195676,1112,1131,180
1742389210.9195676,1135,1129,180
1742389210.9215653,1136,1162,180
1742389210.9215653,1130,1154,180
1742389210.925557,1115,1128,180
1742389210.9265585,1105,1114,180
1742389210.9275527,1114,1128,180
1742389210.9293082,1113,1139,180
1742389210.9303174,1129,1156,180
1742389210.9316316,1136,1175,180
1742389210.9337618,1094,1137,180
1742389210.934765,1074,1115,180
1742389210.936771,1108,1124,180
1742389210.9384258,1112,1145,180
1742389210.9395611,1120,1144,180
1742389210.9405568,1130,1156,180
1742389210.942564,1127,1160,180
1742389210.942564,1112,1135,180
1742389210.9455664,1095,1119,180
1742389210.9481258,1113,1126,180
1742389210.9492614,1114,1129,180
1742389210.9502585,1130,1148,180
1742389210.9522567,1126,1157,180
1742389210.9532614,1128,1142,180
1742389210.9552562,1111,1122,180
1742389210.9562635,1107,1120,180
1742389210.9582515,1114,1133,180
1742389210.9582515,1120,1144,180
1742389210.9622257,1134,1158,180
1742389210.9632266,1129,1151,180
1742389210.9652371,1103,1129,180
1742389210.9661412,1106,1123,180
1742389210.967221,1000,1128,180
1742389210.9682252,1114,1134,180
1742389210.9702222,1126,1150,180
1742389210.9729493,1138,1158,180
1742389210.9729493,1125,1148,180
1742389210.974966,1107,1120,180
1742389210.9768682,1113,1119,180
1742389210.9778628,1117,1130,180
1742389210.979991,1119,1137,180
1742389210.979991,1050,1159,180
1742389210.9826388,1128,1133,180
1742389210.9837728,1118,1138,180
1742389210.9857779,1103,1120,180
1742389210.986773,1107,1124,180
1742389210.9887836,1111,1135,180
1742389210.9907715,1120,1146,180
1742389210.9922786,1137,1160,180
1742389210.9933486,1130,1145,180
1742389210.9944105,1113,1121,180
1742389210.995415,1108,1120,180
1742389210.998414,1082,1133,180
1742389210.9994059,1136,1125,180
1742389211.000419,1107,1152,180
1742389211.001413,1130,1152,180
1742389211.0044165,1038,1158,180
1742389211.0044165,1110,1122,180
1742389211.0064552,1106,1124,180
1742389211.008289,1118,1131,180
1742389211.0103247,1114,1143,180
1742389211.011321,1134,1159,180
1742389211.0144129,1136,1148,180
1742389211.0144129,1124,1126,180
1742389211.0153244,1107,1120,180
1742389211.0168662,1111,1126,180
1742389211.01991,1121,1140,180
1742389211.01991,1130,1150,180
1742389211.0238738,1129,1161,180
1742389211.0258737,1119,1121,180
1742389211.0283904,1110,1124,180
1742389211.0283904,1106,1087,180
1742389211.0293906,1114,1133,180
1742389211.0293906,1124,1144,180
1742389211.0313895,1134,1162,180
1742389211.0313895,1129,1156,180
1742389211.0343924,1112,1130,180
1742389211.03807,1109,1119,180
1742389211.0399058,1107,1126,180
1742389211.042906,1110,1133,180
1742389211.042906,1098,1151,180
1742389211.0439036,1130,1200,180
1742389211.0439036,1122,1141,180
1742389211.0449085,1106,1118,180
1742389211.0494218,1103,1122,180
1742389211.0504234,1111,1134,180
1742389211.0524395,1112,1143,180
1742389211.0524395,1134,1133,180
1742389211.054424,1129,1157,180
1742389211.054424,1119,1128,180
1742389211.0554192,1036,1117,180
1742389211.0554192,1106,1125,180
1742389211.0589604,1118,1134,180
1742389211.0599687,1123,1146,180
1742389211.06203,1139,1152,180
1742389211.0630965,1123,1146,180
1742389211.065085,1112,1123,180
1742389211.065085,1105,1119,180
1742389211.0680661,1112,1124,180
1742389211.0680661,1119,1133,180
1742389211.071649,1128,1158,180
1742389211.0727456,1132,1153,180
1742389211.0747359,1118,1140,180
1742389211.0747359,1105,1110,180
1742389211.0777502,1134,1120,180
1742389211.0777502,1111,1136,180
1742389211.0807376,1138,1145,180
1742389211.0817256,1131,1156,180
1742389211.0827353,1135,1142,180
1742389211.0837379,1104,1125,180
1742389211.0867429,1102,1122,180
1742389211.087739,1110,1129,180
1742389211.0897367,1118,1160,180
1742389211.090736,1125,1152,180
1742389211.0917337,1129,1156,180
1742389211.0937345,1121,1134,180
1742389211.0954742,1109,1115,180
1742389211.096506,1112,1121,180
1742389211.0994706,1102,1127,180
1742389211.1004584,1114,1144,180
1742389211.1024566,1128,1158,180
1742389211.1024566,1127,1154,180
1742389211.104465,1110,1125,180
1742389211.1054645,1103,1062,180
1742389211.1081738,1117,1127,180
1742389211.1101716,1097,1160,180
1742389211.1111844,1129,1156,180
1742389211.1111844,1140,1153,180
1742389211.1151724,1124,1133,180
1742389211.1161788,1106,1117,180
1742389211.1171694,1106,1121,180
1742389211.1181748,1114,1129,180
1742389211.1201746,1123,1142,180
1742389211.1201746,1126,1158,180
1742389211.123177,1122,1148,180
1742389211.123177,1113,1126,180
1742389211.1268904,1105,1119,180
1742389211.1268904,1103,1099,180
1742389211.1288865,1116,1136,180
1742389211.1308358,1120,1152,180
1742389211.1328323,1134,1156,180
1742389211.1328323,1146,1135,180
1742389211.1354294,1106,1116,180
1742389211.136531,1107,1118,180
1742389211.138533,1112,1154,180
1742389211.1405325,1120,1171,180
1742389211.1415267,1134,1109,180
1742389211.1425264,1124,1147,180
1742389211.144585,1110,1130,180
1742389211.1465313,1102,1105,180
1742389211.1485236,1108,1124,180
1742389211.1495302,1122,1130,180
1742389211.1505303,1126,1144,180
1742389211.1514742,1131,1156,180
1742389211.1535375,1122,1138,180
1742389211.1545272,1122,1115,180
1742389211.1572247,1085,1115,180
1742389211.158214,1112,1124,180
1742389211.1592128,1120,1138,180
1742389211.1592128,1126,1151,180
1742389211.1632133,1129,1146,180
1742389211.1642115,1101,1122,180
1742389211.16681,1084,1104,180
1742389211.16681,1102,1078,180
1742389211.16892,1112,1124,180
1742389211.169905,1135,1135,180
1742389211.1719155,1103,1141,180
1742389211.1729062,1133,1137,180
1742389211.1748748,1110,1118,180
1742389211.1764905,1124,1117,180
1742389211.1786,1112,1115,180
1742389211.1795888,1116,1136,180
1742389211.1805863,1131,1158,180
1742389211.1816077,1125,1158,180
1742389211.1846125,1119,1137,180
1742389211.185609,1103,1118,180
1742389211.1875331,1107,1117,180
1742389211.1885939,1103,1127,180
1742389211.1906066,1088,1143,180
1742389211.191717,1136,1156,180
1742389211.1936226,1130,1142,180
1742389211.1946115,1108,1118,180
1742389211.1965916,1083,1108,180
1742389211.1985915,1162,1124,180
1742389211.1995943,1126,1135,180
1742389211.2005882,1128,1153,180
1742389211.2022877,1129,1154,180
1742389211.2022877,1112,1137,180
1742389211.2062783,1102,1086,180
1742389211.2072732,1125,1124,180
1742389211.2082806,1114,1132,180
1742389211.2082806,1121,1144,180
1742389211.212274,1130,1157,180
1742389211.2128725,1143,1154,180
1742389211.214984,1117,1123,180
1742389211.2159739,1105,1115,180
1742389211.2179673,1109,1120,180
1742389211.2179673,1114,1143,180
1742389211.2209792,1124,1149,180
1742389211.2219741,1130,1157,180
1742389211.223974,1115,1138,180
1742389211.2249658,1103,1060,180
1742389211.227968,1102,1122,180
1742389211.2289674,1086,1132,180
1742389211.2299714,1122,1138,180
1742389211.2309666,1138,1152,180
1742389211.2336485,1128,1066,180
1742389211.2336485,1110,1152,180
1742389211.2366736,1102,1054,180
1742389211.237675,1106,1119,180
1742389211.2396164,1093,1128,180
1742389211.2406147,1120,1144,180
1742389211.2416759,1123,1154,180
1742389211.2426667,1116,1136,180
1742389211.2453701,1105,1116,180
1742389211.2463732,1102,1116,180
1742389211.2483778,1107,1073,180
1742389211.249386,1090,1140,180
1742389211.2513914,1128,1145,180
1742389211.2533793,1126,1150,180
1742389211.254802,1109,1124,180
1742389211.2553792,1101,1114,180
1742389211.2573793,1101,1121,180
1742389211.25937,1110,1131,180
1742389211.261382,1119,1144,180
1742389211.262393,1076,1152,180
1742389211.2633743,1110,1121,180
1742389211.2633743,1066,1120,180
1742389211.2670782,1098,1119,180
1742389211.2680779,1102,1132,180
1742389211.270065,1109,1132,180
1742389211.2710738,1121,1150,180
1742389211.2730646,1117,1146,180
1742389211.2740648,1109,1029,180
1742389211.2767675,1097,1194,180
1742389211.2767675,1096,1111,180
1742389211.2787914,1100,1120,180
1742389211.2787914,1108,1128,180
1742389211.2817805,1117,1135,180
1742389211.282774,1105,1122,180
1742389211.285771,1098,1092,180
1742389211.285771,1088,1104,180
1742389211.2877815,1096,1116,180
1742389211.2897816,1106,1086,180
1742389211.291766,1114,1149,180
1742389211.2927735,1128,1125,180
1742389211.2944775,1098,1108,180
1742389211.2944775,1098,1099,180
1742389211.2974722,1094,1130,180
1742389211.2984626,1114,1104,180
1742389211.3004754,1106,1116,180
1742389211.3014822,1096,1065,180
1742389211.3034747,1105,1121,180
1742389211.305078,1099,1096,180
1742389211.3061728,1087,1032,180
1742389211.307179,1090,1097,180
1742389211.3101742,1098,1108,180
1742389211.3101742,1108,1122,180
1742389211.3121715,1109,1122,180
1742389211.3121715,1098,1100,180
1742389211.3161724,1073,1072,180
1742389211.3161724,1087,1090,180
1742389211.318172,1094,1097,180
1742389211.319174,1103,1092,180
1742389211.3221722,1110,1157,180
1742389211.3231728,1102,1115,180
1742389211.3247726,1090,1094,180
1742389211.3249314,1085,1076,180
1742389211.3278751,1048,1090,180
1742389211.3288736,1090,1096,180
1742389211.3308733,1111,1110,180
1742389211.3318663,1074,1132,180
1742389211.333867,1097,1098,180
1742389211.3365715,1085,1078,180
1742389211.3375723,1087,1088,180
1742389211.3385696,1086,1091,180
1742389211.3395615,1082,1102,180
1742389211.3405695,1107,1115,180
1742389211.343567,1097,1106,180
1742389211.3445647,1082,1080,180
1742389211.3458018,1077,1078,180
1742389211.3465064,1078,1086,180
1742389211.349563,1090,1082,180
1742389211.35256,1096,1101,180
1742389211.3535593,1103,1109,180
1742389211.3535593,1092,1096,180
1742389211.354579,1080,1071,180
1742389211.354579,1082,1066,180
1742389211.358287,1066,1086,180
1742389211.3592803,1091,1134,180
1742389211.361283,1057,1098,180
1742389211.362286,1106,1103,180
1742389211.3652833,1101,1094,180
1742389211.3668768,1078,1074,180
1742389211.3679838,1077,1075,180
1742389211.3679838,1076,1093,180
1742389211.3709745,1096,1102,180
1742389211.3719842,1107,1101,180
1742389211.3739746,1092,1092,180
1742389211.3749726,1071,1068,180
1742389211.3765707,1075,1076,180
1742389211.3765707,1086,1082,180
1742389211.3796744,1091,1091,180
1742389211.3806648,1102,1104,180
1742389211.3826702,1092,1105,180
1742389211.383672,1084,1085,180
1742389211.3866682,1076,1074,180
1742389211.3876731,1099,1078,180
1742389211.389674,1094,1084,180
1742389211.3906703,1089,1098,180
1742389211.3918712,1102,1112,180
1742389211.3936765,1091,1092,180
1742389211.395673,1083,1074,180
1742389211.395673,1078,1091,180
1742389211.3986716,1080,1082,180
1742389211.3986716,1158,1087,180
1742389211.4006681,1106,1103,180
1742389211.4023616,1099,1104,180
1742389211.4043705,1086,1084,180
1742389211.4043705,1107,1082,180
1742389211.4083612,1073,1078,180
1742389211.4093637,1089,1085,180
1742389211.4103699,1092,1093,180
1742389211.4103699,1054,1109,180
1742389211.414052,1094,1112,180
1742389211.414052,998,1077,180
1742389211.4160507,1075,995,180
1742389211.417076,1112,1075,180
1742389211.4190528,1086,1083,180
1742389211.4200644,1094,1029,180
1742389211.4233649,1094,1026,180
1742389211.4233649,1050,1097,180
1742389211.4270492,1074,1072,180
1742389211.4280596,1076,1078,180
1742389211.4290626,1081,1084,180
1742389211.4300632,1095,1091,180
1742389211.4310627,1103,1109,180
1742389211.4320552,1100,1107,180
1742389211.4357538,1087,1087,180
1742389211.4357538,1076,1080,180
1742389211.437756,1102,1086,180
1742389211.4387596,1076,1095,180
1742389211.4407523,1092,976,180
1742389211.441751,1102,1090,180
1742389211.444297,1092,1109,180
1742389211.445395,1078,1088,180
1742389211.4474099,1072,1086,180
1742389211.4474099,1080,1091,180
1742389211.4513938,1088,1095,180
1742389211.4524074,1096,1110,180
1742389211.453391,1105,1111,180
1742389211.4546716,1082,1092,180
1742389211.4563053,1073,1078,180
1742389211.4563053,1077,1081,180
1742389211.4583967,1086,1117,180
1742389211.45939,1102,1101,180
1742389211.4623978,1100,1118,180
1742389211.463399,1099,1105,180
1742389211.4651077,1079,1084,180
1742389211.4651077,1074,1098,180
1742389211.4680936,1080,1084,180
1742389211.4700987,1137,1080,180
1742389211.4710948,1101,1110,180
1742389211.4721045,1104,1113,180
1742389211.475093,1094,1092,180
1742389211.4756923,1079,1077,180
1742389211.4778533,994,1082,180
1742389211.4787967,1113,1092,180
1742389211.4807956,1090,1106,180
1742389211.4827983,1102,1121,180
1742389211.4837923,1073,1110,180
1742389211.484806,1086,1089,180
1742389211.4867978,1078,1131,180
1742389211.4867978,1080,1090,180
1742389211.4898124,1088,1101,180
1742389211.490789,1098,1041,180
1742389211.4928057,1011,1120,180
1742389211.4938054,1095,1098,180
1742389211.4964583,1093,1078,180
1742389211.497483,1083,1087,180
1742389211.499478,1085,1090,180
1742389211.500483,1096,1103,180
1742389211.5014336,1104,1119,180
1742389211.5023909,1100,1115,180
1742389211.5044923,1091,1096,180
1742389211.5054862,1086,1084,180
1742389211.5081856,1077,1086,180
1742389211.5091908,1091,1094,180
1742389211.511171,1105,1094,180
1742389211.511171,1110,1117,180
1742389211.51425,1098,1103,180
1742389211.5151787,1071,1081,180
1742389211.5167754,1106,1076,180
1742389211.5167754,1098,1090,180
1742389211.519875,1107,1080,180
1742389211.5208802,1109,1135,180
1742389211.5228424,1113,1108,180
1742389211.5238755,1089,1097,180
1742389211.5268908,1080,1085,180
1742389211.527876,1086,1087,180
1742389211.5298803,1092,1093,180
1742389211.5308666,1099,1101,180
1742389211.5320554,1108,1132,180
1742389211.5327895,1019,1109,180
1742389211.5358732,1104,1086,180
1742389211.5368695,1107,1086,180
1742389211.538887,1087,1114,180
1742389211.539871,1093,1102,180
1742389211.5408192,1124,1108,180
1742389211.5425165,1107,1115,180
1742389211.5445883,1086,1100,180
1742389211.5455217,1084,987,180
1742389211.5475304,1088,1083,180
1742389211.5485208,1087,1090,180
1742389211.5505922,1096,1108,180
1742389211.5515263,1108,1124,180
1742389211.5541575,1103,1107,180
1742389211.5541575,1090,1087,180
1742389211.5571654,1011,1081,180
1742389211.5581527,1086,1089,180
1742389211.5591512,1094,1077,180
1742389211.5601509,1108,1112,180
1742389211.563369,1110,1117,180
1742389211.5640976,1094,1098,180
1742389211.5661535,1081,1084,180
1742389211.5661535,1082,1093,180
1742389211.5691593,1091,1100,180
1742389211.570148,1098,1107,180
1742389211.5721579,1109,1124,180
1742389211.5721579,1102,1133,180
1742389211.5748487,1092,1099,180
1742389211.5758708,1064,1086,180
1742389211.5778546,1086,1096,180
1742389211.5798466,1091,1110,180
1742389211.5808463,1099,1128,180
1742389211.5808463,1107,1138,180
1742389211.5844567,1101,1118,180
1742389211.5855534,1086,1098,180
1742389211.5875564,1085,1100,180
1742389211.5875564,1074,1109,180
1742389211.5905511,1098,1119,180
1742389211.5915601,1115,1133,180
1742389211.593572,1118,1127,180
1742389211.593572,1095,1106,180
1742389211.596572,1083,1098,180
1742389211.597557,1090,1102,180
1742389211.5995598,1096,1109,180
1742389211.6005573,1100,1117,180
1742389211.602561,1110,1048,180
1742389211.6035507,1100,1121,180
1742389211.6062477,1087,1098,180
1742389211.607239,1084,1096,180
1742389211.6082444,1090,1104,180
1742389211.6092522,1095,1116,180
1742389211.6122506,1107,1132,180
1742389211.6132426,1091,1125,180
1742389211.6142466,1103,1104,180
1742389211.6152577,1086,1088,180
1742389211.6179538,1086,1099,180
1742389211.618893,1092,1105,180
1742389211.6209533,1074,1116,180
1742389211.621961,1110,1129,180
1742389211.6239557,1114,1114,180
1742389211.6251864,1082,1098,180
1742389211.6269498,1036,1094,180
1742389211.6279593,1090,1103,180
1742389211.629973,1096,1105,180
1742389211.6309595,1108,1121,180
1742389211.6339543,1106,1139,180
1742389211.637657,1095,995,180
1742389211.637657,1086,1086,180
1742389211.6386583,1083,1097,180
1742389211.6396558,1091,1097,180
1742389211.6396558,1102,1109,180
1742389211.6426594,1110,1122,180
1742389211.6446514,1074,1123,180
1742389211.6446514,1088,1093,180
1742389211.6463485,1084,1087,180
1742389211.6493747,1089,1114,180
1742389211.6503685,1091,1098,180
1742389211.6513572,1109,1116,180
1742389211.6523588,1107,1119,180
1742389211.655362,1093,1071,180
1742389211.655362,1080,1081,180
1742389211.6569717,1074,1081,180
1742389211.659071,1088,1093,180
1742389211.6610763,1114,1126,180
1742389211.6610763,1108,1119,180
1742389211.664075,1096,1110,180
1742389211.665076,1087,1090,180
1742389211.6667867,1078,1084,180
1742389211.6667867,1081,1064,180
1742389211.6697803,1093,1095,180
1742389211.6707869,1100,1109,180
1742389211.6727865,1107,1125,180
1742389211.6737845,1094,1106,180
1742389211.676804,1086,1086,180
1742389211.676804,1046,1083,180
1742389211.6794953,1087,1088,180
1742389211.6794953,1083,1098,180
1742389211.6825087,1103,1119,180
1742389211.6825087,1146,1109,180
1742389211.6844997,1085,1091,180
1742389211.687112,1081,1083,180
1742389211.6892133,1031,1087,180
1742389211.6892133,1086,1090,180
1742389211.691219,1104,1102,180
1742389211.691219,1112,1107,180
1742389211.6942155,1090,1104,180
1742389211.6952045,1085,1080,180
1742389211.6982121,1088,1082,180
1742389211.6982121,1086,1093,180
1742389211.7002168,1125,1102,180
1742389211.701222,1095,1163,180
1742389211.703223,1100,1115,180
1742389211.703223,1088,1061,180
1742389211.7072084,1085,1061,180
1742389211.7072084,1084,1084,180
1742389211.7092083,1089,1090,180
1742389211.7102084,1095,1106,180
1742389211.7128062,1106,1136,180
1742389211.7139087,1104,1103,180
1742389211.7159138,1091,1081,180
1742389211.7169096,1082,1077,180
1742389211.7189095,1086,1089,180
1742389211.7189095,1090,1099,180
1742389211.7219138,1106,1110,180
1742389211.7234986,1103,1112,180
1742389211.724601,1091,1092,180
1742389211.7256036,1077,1082,180
1742389211.7285404,1082,1086,180
1742389211.7296073,1089,1091,180
1742389211.7306054,1097,1070,180
1742389211.7315996,1109,1115,180
1742389211.73388,1102,1109,180
1742389211.73388,1086,1089,180
1742389211.7366073,1124,1082,180
1742389211.7375977,1087,1086,180
1742389211.7396033,1037,1092,180
1742389211.7416062,1102,1113,180
1742389211.7426019,1107,1117,180
1742389211.7426019,1103,1101,180
1742389211.7462902,1082,1082,180
1742389211.747301,1082,1083,180
1742389211.7492888,1090,1089,180
1742389211.7502413,1102,1096,180
1742389211.7532957,1111,1110,180
1742389211.7532957,1098,1134,180
1742389211.7548852,1094,1080,180
1742389211.7559888,1080,1074,180
1742389211.7589893,1090,1077,180
1742389211.7589893,1094,1085,180
1742389211.7619925,1098,1098,180
1742389211.7619925,1104,1108,180
1742389211.7649865,1088,1091,180
1742389211.7651787,1074,1071,180
1742389211.76728,1086,1071,180
1742389211.7682745,1086,1136,180
1742389211.7702847,1089,1088,180
1742389211.7712836,1103,1106,180
1742389211.7732713,1111,1102,180
1742389211.7732713,1053,1075,180
1742389211.7770128,1064,1064,180
1742389211.777994,1082,1078,180
1742389211.780925,1107,1086,180
1742389211.7819867,1054,1100,180
1742389211.7839856,1103,1090,180
1742389211.7849805,1093,1090,180
1742389211.7859852,1079,1076,180
1742389211.7865913,1077,1075,180
1742389211.789693,1087,1080,180
1742389211.7906914,1094,1088,180
1742389211.7926977,1067,1106,180
1742389211.7936928,1106,1104,180
1742389211.7946866,1090,1083,180
1742389211.7966976,1084,1065,180
1742389211.7986913,1083,1072,180
1742389211.7997005,1089,1084,180
1742389211.8006334,1097,1101,180
1742389211.8006334,1110,1109,180
1742389211.8036904,1098,1096,180
1742389211.8046932,1082,1073,180
1742389211.8073874,1078,1073,180
1742389211.8073874,1076,1084,180
1742389211.8103278,1094,1090,180
1742389211.8123817,1106,1108,180
1742389211.8133812,1123,1096,180
1742389211.814393,1087,1092,180
1742389211.8163822,1076,1071,180
1742389211.8163822,1083,1075,180
1742389211.82008,1161,1084,180
1742389211.8210871,1094,1093,180
1742389211.8220866,1100,1112,180
1742389211.8231065,1018,1096,180
1742389211.8266816,1116,1074,180
1742389211.8266816,1080,1082,180
1742389211.8287818,1081,1076,180
1742389211.8287818,1086,1090,180
1742389211.8317802,1099,1105,180
1742389211.8327882,1107,1106,180
1742389211.8347797,1083,1084,180
1742389211.835777,1080,1069,180
1742389211.8377762,1078,1077,180
1742389211.8397737,1054,1083,180
1742389211.8407958,1100,1185,180
1742389211.8407958,1103,1110,180
1742389211.8447857,1109,1100,180
1742389211.8457828,1082,1085,180
1742389211.8477798,1095,1076,180
1742389211.8487933,1083,1079,180
1742389211.849782,1087,1087,180
1742389211.8507862,1164,1097,180
1742389211.8535488,1068,1107,180
1742389211.854481,1116,1092,180
1742389211.8564818,1080,1073,180
1742389211.8574753,1079,1072,180
1742389211.859488,1085,1080,180
1742389211.8604746,1088,1094,180
1742389211.862485,1105,1106,180
1742389211.8641868,1101,1030,180
1742389211.8651812,1087,1079,180
1742389211.866179,1078,1069,180
1742389211.8691869,1050,1082,180
1742389211.8691869,1089,1017,180
1742389211.8711789,1098,1099,180
1742389211.8722,1103,1108,180
1742389211.8741992,1094,1090,180
1742389211.8751872,1079,1072,180
1742389211.8782048,1081,1070,180
1742389211.8782048,1092,1078,180
1742389211.8811784,1091,1059,180
1742389211.8821917,1098,1110,180
1742389211.8837917,1096,1132,180
1742389211.8837917,1053,1082,180
1742389211.8868878,1076,1071,180
1742389211.8878927,1080,1078,180
1742389211.8898342,1082,966,180
1742389211.8898342,1095,1097,180
1742389211.8928921,1110,1107,180
1742389211.8928921,1098,1101,180
1742389211.8955874,1086,1076,180
1742389211.8965962,1082,1074,180
1742389211.8985944,1085,1080,180
1742389211.899593,1091,1068,180
1742389211.902591,1099,1110,180
1742389211.902591,1097,1112,180
1742389211.9055817,1090,1087,180
1742389211.9065812,1076,1071,180
1742389211.9075813,1079,1076,180
1742389211.9085894,1084,1083,180
1742389211.9115932,1101,1092,180
1742389211.9115932,1106,1106,180
1742389211.9135826,1087,1092,180
1742389211.915322,1083,1066,180
1742389211.917279,1077,1072,180
1742389211.917279,1087,1078,180
1742389211.920287,1078,1087,180
1742389211.920287,1090,1101,180
1742389211.9242864,1100,1108,180
1742389211.9242864,990,1091,180
1742389211.9258845,1079,1072,180
1742389211.9269836,1075,1074,180
1742389211.9299972,1085,1081,180
1742389211.9299972,1089,1069,180
1742389211.9329908,1033,1106,180
1742389211.933986,1102,1097,180
1742389211.9359882,1092,1076,180
1742389211.9369822,1080,1069,180
1742389211.9379835,1084,1075,180
1742389211.9399924,1082,1082,180
1742389211.9419935,1101,1098,180
1742389211.942987,1100,1109,180
1742389211.944985,1079,1065,180
1742389211.944985,1083,1070,180
1742389211.947688,1078,1069,180
1742389211.9486284,1081,1082,180
1742389211.9507017,1094,1091,180
1742389211.951696,1104,1107,180
1742389211.9536881,1105,1143,180
1742389211.9536881,1086,1078,180
1742389211.9573073,1073,1070,180
1742389211.9584134,1078,1072,180
1742389211.9594123,1088,1071,180
1742389211.9604118,1097,1096,180
1742389211.963413,1123,1103,180
1742389211.9644191,1092,1095,180
1742389211.9654117,1066,1073,180
1742389211.9673836,1080,1018,180
1742389211.96911,1081,1076,180
1742389211.96911,1087,1086,180
1742389211.9721065,1112,1106,180
1742389211.9731057,1101,1041,180
1742389211.9751153,1092,1081,180
1742389211.97611,1078,1065,180
1742389211.9777915,1081,1067,180
1742389211.9788187,1086,1085,180
1742389211.9818134,1090,1075,180
1742389211.9818134,1107,1107,180
1742389211.9848034,1092,1092,180
1742389211.9858184,1078,1074,180
1742389211.9878283,1080,1058,180
1742389211.9884338,1081,1077,180
1742389211.9905293,1070,1080,180
1742389211.9915402,1098,1101,180
1742389211.9935381,1103,1102,180
1742389211.9935381,1094,1085,180
1742389211.9965384,1079,1087,180
1742389211.99914,1080,1070,180
1742389212.000224,1081,1078,180
1742389212.003226,1090,1090,180
1742389212.003226,1099,1108,180
1742389212.0042248,1091,1095,180
1742389212.0052254,1083,1073,180
1742389212.0072339,984,1065,180
1742389212.008968,961,1074,180
1742389212.0099542,1089,1070,180
1742389212.0109699,972,1097,180
1742389212.0129533,1102,1107,180
1742389212.0129533,1094,1091,180
1742389212.014954,1082,1055,180
1742389212.014954,1078,1066,180
1742389212.018946,1085,1012,180
1742389212.0195558,1097,1091,180
1742389212.0216727,1085,1100,180
1742389212.0226648,1099,1100,180
1742389212.0256577,1085,1077,180
1742389212.0256577,1074,1067,180
1742389212.0276573,1076,1066,180
1742389212.0276573,1088,1096,180
1742389212.0303617,1100,1093,180
1742389212.0303617,1103,1104,180
1742389212.033354,1094,1088,180
1742389212.0353603,1079,1070,180
1742389212.036352,1080,1069,180
1742389212.038367,1076,1074,180
1742389212.0403597,1087,1082,180
1742389212.0403597,1098,1099,180
1742389212.0423698,1096,1102,180
1742389212.0443618,1088,1083,180
1742389212.0463607,1075,1069,180
1742389212.0473757,1077,1046,180
1742389212.0503483,1071,1067,180
1742389212.0503483,1089,1092,180
1742389212.0523508,1103,1102,180
1742389212.0533643,1101,1090,180
1742389212.0551085,1082,1099,180
1742389212.0560663,1074,1066,180
1742389212.0580597,1076,1073,180
1742389212.0580597,1070,1084,180
1742389212.0620627,1104,1098,180
1742389212.0620627,1098,1098,180
1742389212.0640614,1085,1059,180
1742389212.0656238,1071,1068,180
1742389212.0666738,1077,1067,180
1742389212.0677273,991,1068,180
1742389212.0716324,1096,1087,180
1742389212.0716324,1103,1103,180
1742389212.0737267,1099,1094,180
1742389212.0737267,1083,1070,180
1742389212.0806339,1071,1064,180
1742389212.083633,1088,1071,180
1742389212.0861475,1089,1079,180
1742389212.0871568,1095,1092,180
1742389212.0871568,1099,1112,180
1742389212.0911577,1088,1089,180
1742389212.0931575,1078,1066,180
1742389212.0951562,1100,1070,180
1742389212.0986738,1090,1076,180
1742389212.0996735,1091,1090,180
1742389212.0996735,1097,1104,180
1742389212.100675,1100,1097,180
1742389212.101674,1087,1074,180
1742389212.101674,1074,1066,180
1742389212.103673,1080,1074,180
1742389212.1071837,1084,1083,180
1742389212.109195,1125,1095,180
1742389212.1111932,1098,1104,180
1742389212.1131954,1090,1090,180
1742389212.114192,1075,1073,180
1742389212.114192,1073,1074,180
1742389212.115193,1078,1083,180
1742389212.115193,1087,1085,180
1742389212.117193,1100,1099,180
1742389212.121192,1098,1050,180
1742389212.1231937,1085,1082,180
1742389212.1261942,1078,1125,180
1742389212.1281924,1078,1072,180
1742389212.130194,1086,1080,180
1742389212.131197,1090,1094,180
1742389212.131197,1101,1105,180
1742389212.131197,1093,1091,180
1742389212.1327107,1077,1071,180
1742389212.1327107,1070,1067,180
1742389212.13329,1078,1079,180
1742389212.13329,1086,1087,180
1742389212.13329,1098,1102,180
1742389212.13329,1098,1102,180
1742389212.1353023,1087,1080,180
1742389212.1363037,1095,1076,180
1742389212.141301,1065,1070,180
1742389212.1438124,1087,1081,180
1742389212.1458228,1090,1091,180
1742389212.148824,1080,1106,180
1742389212.1498218,1091,1083,180
1742389212.1498218,1082,1074,180
1742389212.1498218,1074,1068,180
1742389212.1508248,1079,1076,180
1742389212.1508248,1081,1041,180
1742389212.1508248,1087,1101,180
1742389212.153047,1102,1101,180
1742389212.1538234,1003,1077,180
1742389212.1568244,1076,1064,180
1742389212.1578214,1074,1071,180
1742389212.1608226,1078,1080,180
1742389212.1618204,1050,1094,180
1742389212.16634,1101,1104,180
1742389212.16634,1059,1102,180
1742389212.1693428,1080,1078,180
1742389212.1713414,1069,1072,180
1742389212.1713414,1080,1075,180
1742389212.1723413,1083,1081,180
1742389212.1723413,1130,1093,180
1742389212.1738532,1098,1106,180
1742389212.1758707,1090,1087,180
1742389212.1798675,1078,1068,180
1742389212.1818664,1051,1086,180
1742389212.185865,1078,1076,180
1742389212.1878664,1087,1091,180
1742389212.1898634,1067,1108,180
1742389212.1908655,1097,1106,180
1742389212.1908655,1087,1075,180
1742389212.1918662,1074,1035,180
1742389212.1928651,1074,1102,180
1742389212.1943755,1080,1047,180
1742389212.1973834,1110,1093,180
1742389212.2003858,1101,1102,180
1742389212.2033846,1099,1080,180
1742389212.205911,1077,1154,180
1742389212.207909,1076,1067,180
1742389212.207909,1085,1083,180
1742389212.2089067,1093,1085,180
1742389212.2089067,1096,1105,180
1742389212.2099059,1094,1100,180
1742389212.2119076,1102,1083,180
1742389212.2119076,1084,1068,180
1742389212.2169094,1077,1072,180
1742389212.2199054,1093,1084,180
1742389212.2229037,1091,1102,180
1742389212.2254157,1128,1102,180
1742389212.2264228,1104,1097,180
1742389212.227424,1082,1070,180
1742389212.231425,1080,1070,180
1742389212.234424,1096,1036,180
1742389212.2369437,1135,1087,180
1742389212.238942,1100,1104,180
1742389212.2399447,1087,1106,180
1742389212.2414682,1083,1088,180
1742389212.2424674,1073,1076,180
1742389212.2424674,1078,1073,180
1742389212.2434692,1087,1081,180
1742389212.2474668,1094,1091,180
1742389212.250469,1102,1107,180
1742389212.253467,1094,1093,180
1742389212.2559776,1084,1075,180
1742389212.2569878,1077,1062,180
1742389212.2579894,1157,1062,180
1742389212.2579894,1086,1088,180
1742389212.2589884,1133,1102,180
1742389212.2589884,1088,1103,180
1742389212.2589884,1096,1085,180
1742389212.260986,1094,1071,180
1742389212.260986,1076,1077,180
1742389212.260986,1088,1083,180
1742389212.260986,1092,1092,180
1742389212.2619882,1128,1096,180
1742389212.2619882,1099,1004,180
1742389212.2619882,1081,1076,180
1742389212.2619882,1080,1069,180
1742389212.2619882,1085,1107,180
1742389212.2619882,1087,1083,180
1742389212.262986,1100,1102,180
1742389212.262986,1096,1107,180
1742389212.262986,1101,1087,180
1742389212.2695055,1081,1069,180
1742389212.2715068,1074,1072,180
1742389212.2755072,1080,1083,180
1742389212.2780242,1088,1092,180
1742389212.2790244,1095,1103,180
1742389212.2800238,1098,1103,180
1742389212.2800238,1076,1075,180
1742389212.2810268,1074,1062,180
1742389212.2820249,1054,1077,180
1742389212.2840266,1084,1085,180
1742389212.2880244,1093,1098,180
1742389212.291026,1100,1096,180
1742389212.2950282,1088,1106,180
1742389212.2960265,1074,1046,180
1742389212.2970257,1056,1069,180
1742389212.2970257,1078,1077,180
1742389212.2970257,1066,1087,180
1742389212.2980273,1098,1106,180
1742389212.3010263,1104,1100,180
1742389212.3035474,1088,1079,180
1742389212.3045485,1072,1064,180
1742389212.3075485,1058,1074,180
1742389212.3075485,1084,1082,180
1742389212.3075485,1097,1103,180
1742389212.30855,1101,1047,180
1742389212.3095493,1106,1146,180
1742389212.3095493,1084,1067,180
1742389212.3105483,1076,990,180
1742389212.3115466,1081,1074,180
1742389212.314065,1093,1087,180
1742389212.3160648,1108,1102,180
1742389212.3170664,1101,1099,180
1742389212.319066,1091,1078,180
1742389212.319066,1076,1061,180
1742389212.320066,1078,1082,180
1742389212.320066,1104,1082,180
1742389212.3210647,1098,1090,180
1742389212.3220665,1101,1098,180
1742389212.3250682,1062,1088,180
1742389212.3270657,1079,1074,180
1742389212.329067,1073,1070,180
1742389212.3300653,1084,957,180
1742389212.3300653,1082,1080,180
1742389212.3310642,1088,1096,180
1742389212.3320656,1106,1101,180
1742389212.3320656,1093,1082,180
1742389212.337587,1076,1058,180
1742389212.3385887,1049,1058,180
1742389212.339591,1089,1075,180
1742389212.3405898,1093,1089,180
1742389212.3425894,1102,1104,180
1742389212.3441007,1096,1096,180
1742389212.3461125,1080,1077,180
1742389212.3471143,1080,1068,180
1742389212.3491125,1078,1072,180
1742389212.3491125,1086,1080,180
1742389212.3511128,1109,1086,180
1742389212.3521135,1100,1098,180
1742389212.356114,1091,1083,180
1742389212.357111,1078,1063,180
1742389212.3581111,1076,1064,180
1742389212.3601122,1102,1078,180
1742389212.3611107,1086,1087,180
1742389212.3611107,1110,1103,180
1742389212.3631139,1095,1094,180
1742389212.3631139,1081,1076,180
1742389212.367632,1071,1070,180
1742389212.3706331,1075,1071,180
1742389212.3716328,1084,1080,180
1742389212.3716328,1095,1093,180
1742389212.3726325,1102,1101,180
1742389212.373632,1090,1090,180
1742389212.3761513,1082,1066,180
1742389212.3771515,1078,948,180
1742389212.38015,1054,1076,180
1742389212.3811514,1089,957,180
1742389212.3821526,1070,1102,180
1742389212.3831508,1100,1100,180
1742389212.3852198,1077,1033,180
1742389212.3861532,1071,1062,180
1742389212.3891504,1074,1070,180
1742389212.3911529,1104,1094,180
1742389212.3921518,1089,1087,180
1742389212.3941517,1103,1103,180
1742389212.3941517,1110,1099,180
1742389212.3941517,1116,1079,180
1742389212.3976676,1072,1065,180
1742389212.4006693,1108,1074,180
1742389212.402669,1088,1081,180
1742389212.4036677,1115,1100,180
1742389212.4046671,1095,1100,180
1742389212.4061742,1085,1084,180
1742389212.4061742,1056,1064,180
1742389212.4061742,1051,1066,180
1742389212.410183,1087,1071,180
1742389212.411183,1088,1090,180
1742389212.4131818,1102,1104,180
1742389212.4151819,1096,1095,180
1742389212.4151819,1153,1086,180
1742389212.4151819,1071,1064,180
1742389212.4186966,1077,1077,180
1742389212.4186966,1083,1084,180
1742389212.422697,1095,1100,180
1742389212.4236987,1100,1104,180
1742389212.4246962,1085,1070,180
1742389212.4256973,1074,1074,180
1742389212.42821,1072,1074,180
1742389212.4302113,1082,1106,180
1742389212.4322107,1087,1090,180
1742389212.43421,1100,1002,180
1742389212.4362097,1152,1098,180
1742389212.4362097,1084,1078,180
1742389212.4377167,1113,1063,180
1742389212.4377167,1075,1073,180
1742389212.4397259,1084,1081,180
1742389212.4417274,1090,1098,180
1742389212.4437256,1100,1105,180
1742389212.4457245,1082,1094,180
1742389212.4457245,1074,1070,180
1742389212.4457245,1074,1106,180
1742389212.4502409,1005,1082,180
1742389212.4512396,1091,977,180
1742389212.4522402,1098,1106,180
1742389212.4522402,1122,1105,180
1742389212.456241,1090,1081,180
1742389212.4572427,1073,1066,180
1742389212.459759,1075,1068,180
1742389212.4607594,1084,1074,180
1742389212.4617586,1088,990,180
1742389212.4627573,1093,1091,180
1742389212.4637592,1086,1105,180
1742389212.4647603,1073,1109,180
1742389212.4677572,1073,1066,180
1742389212.4702756,1075,1072,180
1742389212.4732733,1090,1082,180
1742389212.4742723,1089,1098,180
1742389212.4752724,1113,1066,180
1742389212.4762743,974,1074,180
1742389212.4762743,1079,1066,180
1742389212.4762743,1073,1086,180
1742389212.4807966,1075,1060,180
1742389212.481794,1084,1084,180
1742389212.4837966,1089,1102,180
1742389212.4847937,1089,1061,180
1742389212.4867942,1077,1105,180
1742389212.4867942,1068,1062,180
1742389212.4887948,1072,1069,180
1742389212.4897964,1070,1084,180
1742389212.4917943,1091,1090,180
1742389212.4927955,1058,1098,180
1742389212.4948926,1084,1080,180
1742389212.4967966,1070,1063,180
1742389212.4977977,1069,1066,180
1742389212.498795,1076,1055,180
1742389212.501796,1081,1081,180
1742389212.5037954,1097,1097,180
1742389212.505305,1086,1089,180
1742389212.507314,1074,1073,180
1742389212.5093167,1068,1062,180
1742389212.5113175,970,1065,180
1742389212.5113175,1076,1071,180
1742389212.512317,1083,1085,180
1742389212.513317,1090,1093,180
1742389212.5143187,1086,1079,180
1742389212.5168378,1066,1064,180
1742389212.5188403,1072,1060,180
1742389212.520839,1055,1068,180
1742389212.52284,1078,1076,180
1742389212.5238395,1087,1092,180
1742389212.5238395,1086,1094,180
1742389212.5248384,1077,1035,180
1742389212.5259774,1062,1061,180
1742389212.5288413,1010,1059,180
1742389212.5288413,1070,1072,180
1742389212.5318394,1078,1082,180
1742389212.533839,1094,1018,180
1742389212.5348382,1086,1081,180
1742389212.5373552,1071,1059,180
1742389212.5383542,1064,1058,180
1742389212.5393543,1069,1067,180
1742389212.5403543,1093,1070,180
1742389212.5413554,1086,1086,180
1742389212.544354,1087,1089,180
1742389212.5453537,1075,1083,180
1742389212.5468607,1060,1057,180
1742389212.5478683,1068,1085,180
1742389212.5498683,1067,1066,180
1742389212.5498683,1077,1074,180
1742389212.5528681,1087,1094,180
1742389212.5538673,1083,1082,180
1742389212.5558684,1097,1051,180
1742389212.557375,1061,1051,180
1742389212.5583887,1070,1057,180
1742389212.5593836,1082,1067,180
1742389212.5623813,1078,1087,180
1742389212.5633845,1094,1090,180
1742389212.5653813,1075,1072,180
1742389212.5653813,1076,1048,180
1742389212.5694191,1052,1068,180
1742389212.5694191,1071,1061,180
1742389212.571421,1077,1071,180
1742389212.572479,1088,1035,180
1742389212.5743835,1071,1077,180
1742389212.5743835,1068,1060,180
1742389212.5774202,1067,1050,180
1742389212.5774202,1066,1055,180
1742389212.5813856,1071,1062,180
1742389212.582928,1081,1078,180
1742389212.5839663,1083,1088,180
1742389212.5839663,1077,1071,180
1742389212.5869358,1064,1052,180
1742389212.5899367,1064,1050,180
1742389212.5909693,1060,1060,180
1742389212.591935,1072,1068,180
1742389212.593444,1086,1083,180
1742389212.5944543,1087,1080,180
1742389212.595454,1068,1056,180
1742389212.596495,1039,1047,180
1742389212.5994527,1063,1056,180
1742389212.6004524,1085,1060,180
1742389212.601452,1077,1071,180
1742389212.6024525,1082,1101,180
1742389212.604453,1072,1069,180
1742389212.6054525,1058,1050,180
1742389212.607453,1060,1050,180
1742389212.609451,1066,1056,180
1742389212.610451,1067,1062,180
1742389212.611452,1083,1084,180
1742389212.6149657,1085,1085,180
1742389212.6149657,1073,1061,180
1742389212.6179683,1060,1046,180
1742389212.6189654,1062,1051,180
1742389212.6209662,1070,1065,180
1742389212.6209662,1074,1076,180
1742389212.622967,1132,1087,180
1742389212.6254823,1035,1064,180
1742389212.626482,1059,1054,180
1742389212.6284819,1057,1056,180
1742389212.6294823,1056,1060,180
1742389212.6304834,1071,1068,180
1742389212.632482,1084,1082,180
1742389212.632482,1081,1080,180
1742389212.6354835,1076,1064,180
1742389212.6374812,1060,1068,180
1742389212.6394837,1062,1125,180
1742389212.6404843,1063,1066,180
1742389212.6424844,1075,1070,180
1742389212.6424844,1037,1035,180
1742389212.6449883,1078,1076,180
1742389212.6449883,1069,1053,180
1742389212.6479979,1058,1045,180
1742389212.649997,1070,1058,180
1742389212.650996,1066,1067,180
1742389212.651996,1081,1078,180
1742389212.6529965,1092,1084,180
1742389212.6539974,1061,1044,180
1742389212.65651,1059,1047,180
1742389212.6575115,1057,1050,180
1742389212.6605113,1073,1058,180
1742389212.6605113,1073,1067,180
1742389212.6625106,1081,1081,180
1742389212.6635113,1072,1080,180
1742389212.667511,1060,1056,180
1742389212.667511,1058,1047,180
1742389212.6695106,1058,1050,180
1742389212.6695106,1064,1058,180
1742389212.672512,1073,1074,180
1742389212.6745124,1075,1089,180
1742389212.6760204,1066,1064,180
1742389212.677029,1060,1043,180
1742389212.679029,1063,1047,180
1742389212.679029,1061,1028,180
1742389212.6810281,1068,1067,180
1742389212.6820295,1080,1081,180
1742389212.6850276,1075,1098,180
1742389212.6865337,1062,990,180
1742389212.688543,1061,1046,180
1742389212.688543,1082,1049,180
1742389212.6915426,1062,1059,180
1742389212.6925414,1074,1061,180
1742389212.6935408,1037,1078,180
1742389212.6945415,1076,1064,180
1742389212.6970494,1059,1046,180
1742389212.6970494,1056,1048,180
1742389212.6990576,1061,1056,180
1742389212.7010586,1093,1065,180
1742389212.7030566,1080,1075,180
1742389212.7040565,1079,1129,180
1742389212.7060575,1068,1059,180
1742389212.7060575,1054,1048,180
1742389212.7090573,1060,1052,180
1742389212.7100558,1064,1060,180
1742389212.7121108,1071,1066,180
1742389212.7121108,1083,1084,180
1742389212.7150574,1077,1071,180
1742389212.7150574,1083,1046,180
1742389212.718056,1025,1037,180
1742389212.7190566,1064,1000,180
1742389212.7210572,1068,1122,180
1742389212.7210572,1080,1077,180
1742389212.724574,1078,1079,180
1742389212.7265735,1068,1056,180
1742389212.7285714,1080,1050,180
1742389212.7285714,1058,1052,180
1742389212.7295725,1066,1059,180
1742389212.7295725,1073,1060,180
1742389212.7340865,1084,1075,180
1742389212.7350855,1078,1068,180
1742389212.7360857,1064,1023,180
1742389212.7380853,1061,1031,180
1742389212.7390869,1065,1053,180
1742389212.7400873,1066,1058,180
1742389212.7431612,1073,1076,180
1742389212.7440863,1079,1082,180
1742389212.746085,1146,1067,180
1742389212.746085,1059,1045,180
1742389212.7490876,1061,1044,180
1742389212.7490876,1062,1057,180
1742389212.7520854,1072,1065,180
1742389212.7520854,1086,1077,180
1742389212.7546003,1086,1070,180
1742389212.7556038,1065,1048,180
1742389212.7576022,1032,1052,180
1742389212.7606034,1059,1048,180
1742389212.7606034,1072,1057,180
1742389212.7626016,1071,1069,180
1742389212.7651193,1080,1057,180
1742389212.7671194,1070,1068,180
1742389212.7671194,1116,1040,180
1742389212.7671194,1060,1046,180
1742389212.770119,1063,1052,180
1742389212.772119,1075,1062,180
1742389212.77312,1077,1080,180
1742389212.7751193,1107,1068,180
1742389212.7771177,1068,1054,180
1742389212.778117,1058,1040,180
1742389212.7791173,1062,1047,180
1742389212.7811186,1067,1056,180
1742389212.7821202,1079,1076,180
1742389212.7831178,1084,1078,180
1742389212.784625,1071,1008,180
1742389212.7866342,1057,1042,180
1742389212.7886336,1056,1045,180
1742389212.7886336,1065,1051,180
1742389212.7916353,1069,1061,180
1742389212.792635,1154,1069,180
1742389212.7951427,1082,1075,180
1742389212.7971537,1034,1054,180
1742389212.7981527,1062,1043,180
1742389212.7991524,1060,1047,180
1742389212.8011525,1063,1054,180
1742389212.8011525,1075,1068,180
1742389212.8041523,985,1085,180
1742389212.8071506,1074,1067,180
1742389212.808151,1060,1050,180
1742389212.809151,1052,1045,180
1742389212.8101513,1064,1050,180
1742389212.8101513,1032,1046,180
1742389212.8131518,1078,1070,180
1742389212.8131518,1083,1077,180
1742389212.815656,1073,1059,180
1742389212.815656,1060,1039,180
1742389212.818663,1061,1030,180
1742389212.818663,1055,1051,180
1742389212.8226633,1064,1067,180
1742389212.8236637,1084,1080,180
1742389212.8246636,1083,1075,180
1742389212.8262308,1059,1074,180
1742389212.8281794,1054,1044,180
1742389212.8291802,1065,1052,180
1742389212.8321793,1065,1058,180
1742389212.83318,1077,1071,180
1742389212.8351786,1084,1072,180
1742389212.8351786,1066,1059,180
1742389212.836687,1034,1042,180
1742389212.8376942,1060,1044,180
1742389212.839696,1067,1055,180
1742389212.8416965,1071,1062,180
1742389212.843696,1081,1081,180
1742389212.8446944,1073,1074,180
1742389212.845694,1064,1053,180
1742389212.845694,1050,1045,180
1742389212.8486962,1062,1045,180
1742389212.8496947,1058,1057,180
1742389212.8518121,1072,1071,180
1742389212.8536937,1084,1059,180
1742389212.8546944,1075,1060,180
1742389212.8556936,1059,1040,180
1742389212.857693,1067,1038,180
1742389212.8586938,1063,1053,180
1742389212.8606954,1075,1018,180
1742389212.8606954,1087,1079,180
1742389212.86521,1080,1070,180
1742389212.8662145,1066,1055,180
1742389212.868211,1058,1049,180
1742389212.869213,1062,1054,180
1742389212.8702097,1066,1056,180
1742389212.871211,1073,1068,180
1742389212.8737266,1080,1040,180
1742389212.875726,1078,1065,180
1742389212.8767266,957,1045,180
1742389212.8787267,1060,1046,180
1742389212.8797266,1067,998,180
1742389212.8807263,1067,1064,180
1742389212.8828135,1113,1082,180
1742389212.883727,1082,1079,180
1742389212.8857267,1070,1059,180
1742389212.8867266,1074,1043,180
1742389212.8897264,1083,1116,180
1742389212.8917298,1068,1058,180
1742389212.8932416,1076,1070,180
1742389212.8932416,1084,1080,180
1742389212.8972495,1077,1070,180
1742389212.898249,1065,1054,180
1742389212.9002504,1081,1046,180
1742389212.90225,1066,1062,180
1742389212.903762,1069,1059,180
1742389212.903762,1078,1077,180
1742389212.903762,1084,1082,180
1742389212.903762,1072,1071,180
1742389212.907771,1055,1046,180
1742389212.9107723,1058,1048,180
1742389212.9127731,1053,1058,180
1742389212.9139054,1066,1066,180
1742389212.914773,1085,1062,180
1742389212.9157712,1086,1063,180
1742389212.9167702,1067,1049,180
1742389212.9167702,1056,1043,180
1742389212.9197707,1064,1052,180
1742389212.9217703,1070,1055,180
1742389212.9227712,1079,1070,180
1742389212.9242783,1034,1066,180
1742389212.9252863,1071,1064,180
1742389212.9272876,1059,1045,180
1742389212.9292865,1060,1045,180
1742389212.9292865,1064,1053,180
1742389212.931286,1081,1061,180
1742389212.9332874,1082,1077,180
1742389212.9347932,1080,1074,180
1742389212.935799,1067,1030,180
1742389212.9378002,1058,1038,180
1742389212.9388,1058,930,180
1742389212.9408002,1067,1054,180
1742389212.9428005,1076,1066,180
1742389212.9449403,1080,1080,180
1742389212.9458013,1072,1070,180
1742389212.946802,1061,1048,180
1742389212.946802,1055,1046,180
1742389212.950801,1059,1048,180
1742389212.9517992,1075,1062,180
1742389212.9528024,1077,1038,180
1742389212.9553075,1083,1011,180
1742389212.9563165,1011,1056,180
1742389212.9573183,1007,1032,180
1742389212.9593146,1056,1043,180
1742389212.9603152,1022,1051,180
1742389212.962315,1102,1066,180
1742389212.9633152,1063,1100,180
1742389212.9643145,1071,1078,180
1742389212.9658198,1077,1042,180
1742389212.9688296,1054,1044,180
1742389212.9708276,1058,1002,180
1742389212.9718285,1066,1059,180
1742389212.9728274,1077,1072,180
1742389212.9759357,1078,1075,180
1742389212.9759357,1064,1055,180
1742389212.976828,1060,1039,180
1742389212.977828,1059,1043,180
1742389212.9808273,1086,1052,180
1742389212.9818263,1059,1063,180
1742389212.983826,1078,1077,180
1742389212.983826,1017,1059,180
1742389212.986401,1062,1046,180
1742389212.986401,1055,1031,180
1742389212.990336,1030,1048,180
1742389212.990336,1074,1055,180
1742389212.9923375,1072,1069,180
1742389212.9933386,1083,1072,180
1742389212.9953372,979,1054,180
1742389212.9968417,1055,1041,180
1742389212.9988472,1058,1038,180
1742389212.9998486,1064,1049,180
1742389213.00185,1068,1059,180
1742389213.0028877,1081,1066,180
1742389213.004885,1076,1068,180
1742389213.0058827,1063,1050,180
1742389213.0073867,1056,1044,180
1742389213.0084329,1060,1047,180
1742389213.0104308,1067,1051,180
1742389213.0114992,1074,1061,180
1742389213.0144312,1086,1072,180
1742389213.0154269,1074,1061,180
1742389213.0164304,958,1038,180
1742389213.017434,1053,1020,180
1742389213.0184286,1059,1050,180
1742389213.0225303,1066,1077,180
1742389213.0225303,1078,1057,180
1742389213.0233963,1077,1069,180
1742389213.025435,1070,1054,180
1742389213.0264301,1054,1071,180
1742389213.0274282,1060,1044,180
1742389213.0294259,1064,1052,180
1742389213.0294259,1073,1090,180
1742389213.0339472,1084,1076,180
1742389213.035174,1072,1065,180
1742389213.0367613,1063,1036,180
1742389213.0367613,1056,1034,180
1742389213.039379,1090,1043,180
1742389213.0405345,1066,1054,180
1742389213.042884,1078,1069,180
1742389213.0452142,1078,1068,180
1742389213.045956,1065,1140,180
1742389213.0475402,1032,1044,180
1742389213.0487313,1053,1044,180
1742389213.0489564,1065,1048,180
1742389213.0513349,1071,991,180
1742389213.0519125,1078,1072,180
1742389213.055903,1074,1049,180
1742389213.0569947,1061,1040,180
1742389213.0580957,1052,1032,180
1742389213.0586789,1053,1042,180
1742389213.0603786,1061,1054,180
1742389213.0603786,1073,1066,180
1742389213.0636091,1076,1055,180
1742389213.0645802,1067,1056,180
1742389213.0665462,1050,1032,180
1742389213.0665462,1048,1049,180
1742389213.0705676,1060,1053,180
1742389213.072544,1065,1054,180
1742389213.074052,1077,1122,180
1742389213.0750608,1076,1067,180
1742389213.0750608,1059,1043,180
1742389213.0770614,1053,1010,180
1742389213.0790632,1055,1068,180
1742389213.0800612,1064,1047,180
1742389213.0820603,1068,1056,180
1742389213.0841918,1078,1146,180
1742389213.0850618,1072,1055,180
1742389213.0860596,1055,1035,180
1742389213.088059,1051,1036,180
1742389213.088059,1054,1048,180
1742389213.0920622,1064,1052,180
1742389213.0920622,1070,1009,180
1742389213.0946085,1076,1068,180
1742389213.0946085,1060,1047,180
1742389213.0966506,1054,1034,180
1742389213.0976582,1056,1048,180
1742389213.1016614,1062,1046,180
1742389213.103647,1067,1056,180
1742389213.103647,1073,1064,180
1742389213.1046534,1065,1056,180
1742389213.1057985,1055,1035,180
1742389213.1057985,1051,1016,180
1742389213.1097655,1055,1041,180
1742389213.1107638,1060,1023,180
1742389213.1127982,1072,1074,180
1742389213.1127982,1076,1066,180
1742389213.115766,1064,1016,180
1742389213.116764,1051,1028,180
1742389213.1187963,1052,1037,180
1742389213.1197646,1065,1050,180
1742389213.1217647,1068,1052,180
1742389213.1217647,1075,1065,180
1742389213.1237676,1067,1059,180
1742389213.125273,1054,1043,180
1742389213.1282816,1048,1043,180
1742389213.1302822,1056,1044,180
1742389213.1332824,1060,1050,180
1742389213.1332824,1071,1067,180
1742389213.134283,1074,1074,180
1742389213.1357884,1073,1048,180
1742389213.1397965,1052,1032,180
1742389213.141796,1050,1036,180
1742389213.1427965,1063,1045,180
1742389213.1427965,1061,1089,180
1742389213.1427965,1077,1022,180
1742389213.1448,1089,1063,180
1742389213.1468198,1054,1042,180
1742389213.1478176,959,1052,180
1742389213.1507976,1055,1043,180
1742389213.152797,1039,1047,180
1742389213.152797,1066,1067,180
1742389213.153795,1072,1071,180
1742389213.154816,1070,1000,180
1742389213.158337,1052,1034,180
1742389213.158337,1055,1036,180
1742389213.16037,1034,1058,180
1742389213.161373,1065,1040,180
1742389213.1623712,1078,1071,180
1742389213.1643603,1078,1065,180
1742389213.1653557,1058,1046,180
1742389213.168878,1046,1039,180
1742389213.17089,1057,1055,180
1742389213.171896,1062,1051,180
1742389213.1728773,1073,1062,180
1742389213.1739025,1077,1074,180
1742389213.1739025,1066,1062,180
1742389213.1768987,1056,1037,180
1742389213.1774118,1054,1038,180
1742389213.1794388,1057,1024,180
1742389213.1794388,1066,1053,180
1742389213.1834404,1072,1070,180
1742389213.1834404,1049,1062,180
1742389213.1854527,1060,1048,180
1742389213.1874418,1050,1066,180
1742389213.1894379,1056,1040,180
1742389213.1894379,1062,1050,180
1742389213.1927419,1071,1060,180
1742389213.1934714,1081,1071,180
1742389213.195544,1070,1058,180
1742389213.195544,1056,1041,180
1742389213.1984565,1052,1039,180
1742389213.200513,1077,1044,180
1742389213.200513,1068,1073,180
1742389213.2015083,1071,1056,180
1742389213.2041466,1001,1132,180
1742389213.2051504,1057,1051,180
1742389213.2072034,1091,1039,180
1742389213.2091517,1053,1019,180
1742389213.21015,1058,1036,180
1742389213.2121472,1064,1059,180
1742389213.2136931,1074,1072,180
1742389213.2147884,1070,1059,180
1742389213.2167776,1055,1038,180
1742389213.2167776,1052,1032,180
1742389213.2197847,1048,1048,180
1742389213.2208014,1061,998,180
1742389213.2227888,1072,1064,180
1742389213.2227888,1070,1067,180
1742389213.2247424,1061,1050,180
1742389213.2257364,1051,1023,180
1742389213.2287412,1062,1030,180
1742389213.2308288,1064,1048,180
1742389213.2318301,1061,1046,180
1742389213.2328255,1075,1063,180
1742389213.23454,1064,1057,180
1742389213.2365842,1057,1035,180
1742389213.2375016,1048,1032,180
1742389213.2385857,1050,1037,180
1742389213.240595,1064,1046,180
1742389213.240595,1068,1020,180
1742389213.244554,1052,1056,180
1742389213.2450933,1053,1052,180
1742389213.2461357,1045,1032,180
1742389213.2471342,1048,1031,180
1742389213.2511854,1054,1038,180
1742389213.2521973,1062,1045,180
1742389213.2531981,1080,1068,180
1742389213.2531981,1084,1061,180
1742389213.2551873,1064,1039,180
1742389213.2572057,1055,1025,180
1742389213.2602,988,1050,180
1742389213.261198,1057,1039,180
1742389213.262187,1064,1043,180
1742389213.2631884,1072,1006,180
1742389213.2649431,1062,1049,180
1742389213.265832,1052,1033,180
1742389213.2678337,1049,1032,180
1742389213.2688956,1053,1038,180
1742389213.2718391,1061,1035,180
1742389213.2718391,1071,1063,180
1742389213.273846,1074,1061,180
1742389213.273846,1064,1041,180
1742389213.2774365,1050,1027,180
1742389213.2784352,1048,997,180
1742389213.2804394,1062,1038,180
1742389213.2814415,1064,1050,180
1742389213.2834404,1087,1058,180
1742389213.2844012,1068,1071,180
1742389213.2864373,1053,1036,180
1742389213.287438,1037,1029,180
1742389213.290436,1050,1038,180
1742389213.2924004,1058,1047,180
1742389213.2934005,1070,1059,180
1742389213.2934005,1076,1063,180
1742389213.295905,1062,950,180
1742389213.295905,1052,1026,180
1742389213.2979126,1055,1024,180
1742389213.299943,1058,1085,180
1742389213.301944,974,1050,180
1742389213.301944,1075,1060,180
1742389213.3039467,1068,1027,180
1742389213.305945,1056,1039,180
1742389213.3086438,1025,1039,180
1742389213.3095787,1053,1033,180
1742389213.3105762,1058,1013,180
1742389213.3115761,1066,1069,180
1742389213.3145766,1074,1064,180
1742389213.315577,1070,1068,180
1742389213.317159,1058,1028,180
1742389213.318122,1049,1026,180
1742389213.3201191,1053,1038,180
1742389213.3201191,1059,1047,180
1742389213.3230896,1089,1061,180
1742389213.3240898,1069,1058,180
1742389213.326089,1055,1039,180
1742389213.326089,1044,1030,180
1742389213.3296044,1048,1035,180
1742389213.330606,1056,1041,180
1742389213.331604,1066,924,180
1742389213.3336077,1075,1062,180
1742389213.3346045,1066,1052,180
1742389213.3346045,1055,1030,180
1742389213.3382533,1050,1029,180
1742389213.3391216,1052,1036,180
1742389213.3411205,1062,1066,180
1742389213.343155,1070,1062,180
1742389213.3441205,1082,1056,180
1742389213.3451207,1057,1046,180
1742389213.3471518,1053,1028,180
1742389213.348659,1049,1033,180
1742389213.350668,1055,1037,180
1742389213.3516667,1064,1045,180
1742389213.3526666,1072,1063,180
1742389213.3536658,1068,1055,180
1742389213.357666,1103,1032,180
1742389213.3586664,1050,1024,180
1742389213.3606675,1055,1032,180
1742389213.3606675,1056,930,180
1742389213.3626666,1066,1051,180
1742389213.3626666,1068,1064,180
1742389213.366667,1054,1047,180
1742389213.3676665,1047,1029,180
1742389213.3696666,1054,1042,180
1742389213.3696666,1053,1038,180
1742389213.3726656,1057,1047,180
1742389213.374172,1071,1063,180
1742389213.374172,1069,1054,180
1742389213.3761775,1059,1036,180
1742389213.3781784,1018,1022,180
1742389213.379178,1028,1035,180
1742389213.3811786,1016,1041,180
1742389213.3821783,1069,1052,180
1742389213.3831801,1071,1060,180
1742389213.3846862,1068,1041,180
1742389213.3877275,1046,1036,180
1742389213.3877275,1045,1032,180
1742389213.389753,1046,1036,180
1742389213.391725,1062,1043,180
1742389213.392726,1072,1041,180
1742389213.3937862,1084,1058,180
1742389213.3967268,1056,1038,180
1742389213.3967268,1067,1116,180
1742389213.3997355,1121,1011,180
1742389213.400739,1051,1038,180
1742389213.4027302,1064,1052,180
1742389213.4037588,1073,1061,180
1742389213.4054413,1038,1047,180
1742389213.4073384,1054,1036,180
1742389213.4083397,956,1024,180
1742389213.4093368,1054,1035,180
1742389213.4113402,1057,1038,180
1742389213.412336,1041,1054,180
1742389213.4143386,1071,1060,180
1742389213.4159038,1064,1039,180
1742389213.418948,1049,1001,180
1742389213.4199505,1035,1025,180
1742389213.4209406,1056,1038,180
1742389213.4209406,1090,1048,180
1742389213.4239426,1072,1064,180
1742389213.4249432,1110,1030,180
1742389213.4279099,1052,1032,180
1742389213.4290628,1047,1031,180
1742389213.43,1049,1035,180
1742389213.4310029,1059,1039,180
1742389213.433,1068,1053,180
1742389213.433,1084,1057,180
1742389213.4350178,1058,1043,180
1742389213.4377325,1046,1018,180
1742389213.438737,1074,1027,180
1742389213.4397304,1050,1026,180
1742389213.442647,1060,1042,180
1742389213.442647,1069,1063,180
1742389213.444733,1065,1052,180
1742389213.447367,1046,1032,180
1742389213.4485002,1044,1025,180
1742389213.4494994,1076,1032,180
1742389213.4515007,1052,1040,180
1742389213.4515007,1071,1052,180
1742389213.4544969,1084,1071,180
1742389213.4554975,1062,1042,180
1742389213.4571252,1028,1077,180
1742389213.4582644,1046,1027,180
1742389213.4602578,1056,1033,180
1742389213.4612596,1054,1046,180
1742389213.46326,1071,1058,180
1742389213.4652557,1066,933,180
1742389213.46625,1054,1036,180
1742389213.4672563,1045,962,180
1742389213.4690366,1035,1031,180
1742389213.4690366,1054,1017,180
1742389213.473027,1066,1052,180
1742389213.4740303,1070,1064,180
1742389213.47603,1066,1049,180
1742389213.47603,1056,1034,180
1742389213.4787862,1051,1024,180
1742389213.4797907,1052,1036,180
1742389213.481788,1053,1045,180
1742389213.4837942,1074,1057,180
1742389213.4847896,1068,1045,180
1742389213.4857879,1062,1040,180
1742389213.4867277,1042,1026,180
1742389213.4883487,1056,1031,180
1742389213.4914923,1057,1038,180
1742389213.492485,1076,1054,180
1742389213.4934754,1073,1058,180
1742389213.4944763,1064,1050,180
1742389213.497482,1035,1034,180
1742389213.4989483,1048,1021,180
1742389213.4999552,1054,1029,180
1742389213.501956,1060,1037,180
1742389213.5029566,1046,1055,180
1742389213.5049882,1063,1060,180
1742389213.507018,1066,1043,180
1742389213.5089617,1043,1028,180
1742389213.5095022,1081,1028,180
1742389213.5105422,1053,1036,180
1742389213.5125113,1066,1037,180
1742389213.5125113,1077,1058,180
1742389213.5155096,1071,1032,180
1742389213.5165076,1057,1019,180
1742389213.519053,1050,1039,180
1742389213.5200632,1058,1033,180
1742389213.5220618,1066,1039,180
1742389213.5230618,1069,1050,180
1742389213.5250633,1071,1062,180
1742389213.5290642,1058,1047,180
1742389213.532063,1053,1026,180
1742389213.533063,1052,1030,180
1742389213.5340612,1057,1035,180
1742389213.5360649,1062,1046,180
1742389213.5370617,1074,1059,180
1742389213.5370617,1076,1052,180
1742389213.5400622,1063,1032,180
1742389213.5410643,1054,1016,180
1742389213.5435798,1053,1026,180
1742389213.5445797,1061,1030,180
1742389213.5455992,1052,1051,180
1742389213.5465965,1084,1059,180
1742389213.5465965,1066,1047,180
1742389213.5465965,1032,1029,180
1742389213.54958,1058,1030,180
1742389213.5515783,1039,1034,180
1742389213.5515783,1064,1042,180
1742389213.5540943,1076,1058,180
1742389213.5550911,1123,1044,180
1742389213.5560918,1062,1038,180
1742389213.5581844,1050,1023,180
1742389213.5591815,1055,1018,180
1742389213.5611858,1060,1035,180
1742389213.5611858,1068,1050,180
1742389213.565138,1077,1057,180
1742389213.565138,1069,1048,180
1742389213.5671253,1048,1028,180
1742389213.5690932,1050,1024,180
1742389213.5710921,1056,1034,180
1742389213.5720909,1065,1039,180
1742389213.57369,1083,1057,180
1742389213.57369,1080,1052,180
1742389213.5766454,1061,1035,180
1742389213.577641,1051,1025,180
1742389213.5797067,1058,1025,180
1742389213.580706,1062,1033,180
1742389213.5827057,1065,1046,180
1742389213.5827057,1076,1062,180
1742389213.5854084,1073,1044,180
1742389213.5864046,1058,1029,180
1742389213.5884142,982,1025,180
1742389213.5894096,1056,994,180
1742389213.59141,1059,1040,180
1742389213.5924067,1068,991,180
1742389213.594503,1050,1058,180
1742389213.594503,1016,1041,180
1742389213.5974119,1056,1026,180
1742389213.598411,1060,1028,180
1742389213.6003532,1058,1030,180
1742389213.6014156,1061,1040,180
1742389213.6034074,1073,1062,180
1742389213.605009,1101,1059,180
1742389213.6071198,1062,1076,180
1742389213.6081083,1052,1026,180
1742389213.6101024,1052,1039,180
1742389213.6111102,1066,1041,180
1742389213.6131237,1073,1054,180
1742389213.614105,1077,1061,180
1742389213.6157084,1070,1046,180
1742389213.616821,1057,1047,180
1742389213.6188073,1045,1026,180
1742389213.6198173,1057,1035,180
1742389213.6217618,1068,1045,180
1742389213.622803,1079,1057,180
1742389213.6247504,1072,1060,180
1742389213.6259933,1064,1043,180
1742389213.6278014,1053,1029,180
1742389213.628801,1058,1032,180
1742389213.6298172,1060,968,180
1742389213.630812,1069,1039,180
1742389213.6318016,1078,1061,180
1742389213.6364834,1073,982,180
1742389213.6364834,1064,1034,180
1742389213.6385014,1055,1022,180
1742389213.6394958,1056,1036,180
1742389213.6415007,1058,1043,180
1742389213.6424954,1073,1055,180
1742389213.6445045,1078,1061,180
1742389213.6455019,1066,1043,180
1742389213.6471255,1056,1030,180
1742389213.6471255,1052,1033,180
1742389213.6502347,1062,1039,180
1742389213.6512265,1066,1046,180
1742389213.6532667,1079,1062,180
1742389213.6542282,1072,1058,180
1742389213.6552413,1062,1038,180
1742389213.6552413,1050,1026,180
1742389213.6589313,1058,1033,180
1742389213.6589313,1064,1038,180
1742389213.661943,1070,1068,180
1742389213.6639404,1074,1060,180
1742389213.6649394,1069,1019,180
1742389213.6659791,1055,1028,180
1742389213.6679554,1055,1028,180
1742389213.669933,1045,1022,180
1742389213.670934,1068,1045,180
1742389213.6719558,1082,1059,180
1742389213.6749387,1070,1053,180
1742389213.6759331,1065,1035,180
1742389213.6779487,1052,1026,180
1742389213.6789348,1059,1031,180
1742389213.6798801,1064,1035,180
1742389213.6798801,1114,1050,180
1742389213.683657,1075,1058,180
1742389213.6846602,1067,1047,180
1742389213.6866665,1049,1025,180
1742389213.6866665,1052,1027,180
1742389213.6906548,1036,1031,180
1742389213.6906548,1072,1041,180
1742389213.692661,1068,1057,180
1742389213.692661,1078,1048,180
1742389213.695362,1065,1037,180
1742389213.6973622,1052,1022,180
1742389213.6993716,1058,1034,180
1742389213.6993716,1027,1034,180
1742389213.7023635,1069,1051,180
1742389213.703496,1066,1063,180
1742389213.704367,1066,1050,180
1742389213.7053692,1050,1034,180
1742389213.7083702,1050,1012,180
1742389213.7093656,1062,1035,180
1742389213.7113686,1061,1040,180
1742389213.7113686,1055,1040,180
1742389213.714113,1057,1062,180
1742389213.7150605,1065,1044,180
1742389213.7170584,1054,1031,180
1742389213.718064,1055,1083,180
1742389213.7200632,1058,1035,180
1742389213.7200632,1064,1048,180
1742389213.723061,1066,1061,180
1742389213.7246652,1082,1053,180
1742389213.7257695,1055,1026,180
1742389213.727763,942,1024,180
1742389213.7297618,1056,1031,180
1742389213.7307749,1077,1035,180
1742389213.7327719,1072,1055,180
1742389213.7327719,1074,1124,180
1742389213.7357683,1067,1042,180
1742389213.7367735,1052,1022,180
1742389213.7387674,1051,1024,180
1742389213.7397664,1057,1034,180
1742389213.7407713,1063,1076,180
1742389213.742765,1058,1058,180
1742389213.745456,1068,1049,180
1742389213.7464628,1055,1029,180
1742389213.7484777,1048,1024,180
1742389213.7494714,1096,1032,180
1742389213.7514725,1049,1036,180
1742389213.7524686,1067,1048,180
1742389213.753465,1074,1058,180
1742389213.7544668,1063,1056,180
1742389213.7571137,1051,1024,180
1742389213.758096,1052,975,180
1742389213.7601051,1056,1033,180
1742389213.7601051,1040,1042,180
1742389213.763113,1061,1055,180
1742389213.7640965,1073,1052,180
1742389213.767106,1070,1116,180
1742389213.767106,1056,1025,180
1742389213.769109,1053,1029,180
1742389213.769109,1029,1020,180
1742389213.773103,1066,1045,180
1742389213.775777,1074,1060,180
1742389213.776793,1050,1048,180
1742389213.776793,1061,1026,180
1742389213.7778037,1065,1024,180
1742389213.7787988,1055,1032,180
1742389213.7808113,1065,1040,180
1742389213.7828019,1070,1066,180
1742389213.7848115,1077,1054,180
1742389213.7848115,1062,1037,180
1742389213.788522,1050,1029,180
1742389213.788522,1061,1027,180
1742389213.7915113,1042,1029,180
1742389213.7915113,1050,1044,180
1742389213.7935169,1077,1056,180
1742389213.7945092,1071,1042,180
1742389213.7966518,1057,1042,180
1742389213.7985141,1059,1020,180
1742389213.8005168,1059,1030,180
1742389213.8005168,1064,977,180
1742389213.8025198,1074,1071,180
1742389213.804516,1074,1055,180
1742389213.8055081,1059,1038,180
1742389213.807218,1048,1025,180
1742389213.8082118,1049,1028,180
1742389213.8092086,1060,1040,180
1742389213.812205,1066,1063,180
1742389213.8142092,1076,1056,180
1742389213.8152,1072,1052,180
1742389213.8152,1058,1025,180
1742389213.8177414,1048,1019,180
1742389213.818848,1054,1028,180
1742389213.8218384,1061,1042,180
1742389213.822859,1152,1072,180
1742389213.8238378,1073,1058,180
1742389213.824834,1065,1041,180
1742389213.8278413,1053,1022,180
1742389213.828385,958,1016,180
1742389213.8303945,1057,1016,180
1742389213.8303945,1063,1040,180
1742389213.8333912,1075,1058,180
1742389213.8343923,1074,1052,180
1742389213.8363926,1061,1026,180
1742389213.8373916,1056,1018,180
1742389213.839509,1059,1023,180
1742389213.839509,1060,1035,180
1742389213.8425179,1088,1048,180
1742389213.843509,1080,1059,180
1742389213.8455095,1067,1042,180
1742389213.8465157,1135,1020,180
1742389213.8484929,1048,1002,180
1742389213.8504786,1056,1036,180
1742389213.8514917,1024,1033,180
1742389213.8524833,1071,1051,180
1742389213.854083,1076,1053,180
1742389213.854083,1058,1036,180
1742389213.8571885,1046,1020,180
1742389213.858189,1057,1025,180
1742389213.8611243,1059,1030,180
1742389213.8611243,1066,1042,180
1742389213.8647249,1073,1058,180
1742389213.8658333,1072,1046,180
1742389213.8667357,1056,1026,180
1742389213.8678203,1046,1019,180
1742389213.8698301,1055,1029,180
1742389213.8698301,1060,1086,180
1742389213.8738213,1078,1043,180
1742389213.8738213,1079,1054,180
1742389213.8757389,1064,1036,180
1742389213.8767312,1051,1018,180
1742389213.879824,1052,1025,180
1742389213.880821,1062,1034,180
1742389213.882834,1066,1043,180
1742389213.8837657,1076,1024,180
1742389213.8853984,1066,1052,180
1742389213.8853984,1060,1032,180
1742389213.8883498,1054,1018,180
1742389213.8883498,1026,1006,180
1742389213.8924057,1044,1038,180
1742389213.8924057,1155,1064,180
1742389213.8954039,1075,1054,180
1742389213.8960106,1053,1038,180
1742389213.898109,1027,1018,180
1742389213.8991067,1055,1021,180
1742389213.9001095,1062,1032,180
1742389213.9001095,1065,1047,180
1742389213.9031038,1078,1068,180
1742389213.904107,1071,1048,180
1742389213.9071054,1057,1026,180
1742389213.908053,1051,1025,180
1742389213.910105,1052,1028,180
1742389213.910105,1065,1032,180
1742389213.9131105,1082,1045,180
1742389213.9131105,1080,1043,180
1742389213.9151056,1044,1039,180
1742389213.9168212,1032,1025,180
1742389213.9188035,1058,1022,180
1742389213.9188035,1059,1030,180
1742389213.9228048,1065,1040,180
1742389213.9228048,1073,1058,180
1742389213.9248197,1074,1052,180
1742389213.9258065,1066,1033,180
1742389213.9285107,1055,1019,180
1742389213.9285107,1058,1026,180
1742389213.9315248,1058,1036,180
1742389213.9315248,1074,1048,180
1742389213.9335349,1080,1060,180
1742389213.9335349,1075,1048,180
1742389213.9373064,1070,1026,180
1742389213.9384017,1056,1033,180
1742389213.9404042,1062,1039,180
1742389213.941403,1070,1048,180
1742389213.9434054,1076,1059,180
1742389213.9434054,1074,1067,180
1742389213.9464128,1060,1053,180
1742389213.9474065,1056,1036,180
1742389213.9494014,1058,1035,180
1742389213.9504082,1063,1048,180
1742389213.952744,1067,1066,180
1742389213.9534037,1083,1082,180
1742389213.9554095,1074,1069,180
1742389213.9554095,1059,1047,180
1742389213.9594047,1053,1045,180
1742389213.9594047,1058,1059,180
1742389213.9614003,1064,1066,180
1742389213.9614003,1078,1084,180
1742389213.965103,1078,1090,180
1742389213.9661002,1065,1080,180
1742389213.9670959,1052,1066,180
1742389213.9701073,1055,1066,180
1742389213.9710963,1064,1067,180
1742389213.9720964,1070,1076,180
1742389213.9737008,1080,1020,180
1742389213.9737008,1070,1083,180
1742389213.9768085,1058,1057,180
1742389213.977793,1057,1083,180
1742389213.9798064,1087,1066,180
1742389213.9798064,1065,1068,180
1742389213.9828005,1072,1073,180
1742389213.98474,1078,1089,180
1742389213.9868023,1084,1064,180
1742389213.9868023,1024,1048,180
1742389213.9888022,1055,1051,180
1742389213.9888022,1062,1061,180
1742389213.991795,1070,1070,180
1742389213.991795,1081,1083,180
1742389213.9945483,1075,1072,180
1742389213.9964788,1061,1050,180
1742389213.997477,1024,1030,180
1742389213.998486,1059,1048,180
1742389214.0014918,1064,1057,180
1742389214.0014918,1070,1071,180
1742389214.0034916,1074,1070,180
1742389214.0051048,1062,1061,180
1742389214.0072043,1013,1046,180
1742389214.0072043,1054,1046,180
1742389214.0112119,1064,1052,180
1742389214.0122042,1065,1060,180
1742389214.013199,1075,1076,180
1742389214.0142033,1076,1065,180
1742389214.0162075,979,1044,180
1742389214.0172029,1058,1038,180
1742389214.0201998,1056,1042,180
1742389214.0212002,1076,1044,180
1742389214.0222032,1097,1066,180
1742389214.0231986,1074,1074,180
1742389214.0258994,1071,1060,180
1742389214.0268905,1095,1062,180
1742389214.0289078,1052,1035,180
1742389214.0298972,1059,1062,180
1742389214.03189,1070,1053,180
1742389214.03189,1079,1068,180
1742389214.0358987,1031,1066,180
1742389214.0365102,1073,1042,180
1742389214.0376046,1043,1039,180
1742389214.0376046,1056,1038,180
1742389214.0416074,1121,1050,180
1742389214.0436084,1072,1080,180
1742389214.0446274,1078,1066,180
1742389214.045608,1070,1060,180
1742389214.0466986,1056,1029,180
1742389214.0476265,1054,1042,180
1742389214.0506074,1058,1011,180
1742389214.0516086,1062,1046,180
1742389214.0536127,1072,1063,180
1742389214.0536127,1111,1054,180
1742389214.0572011,1082,1042,180
1742389214.0572011,1067,1028,180
1742389214.0593207,1055,1021,180
1742389214.0603054,1058,1042,180
1742389214.0633025,1064,1053,180
1742389214.0633025,1079,1065,180
1742389214.065303,1069,1053,180
1742389214.0663204,1095,1050,180
1742389214.0678332,1051,1034,180
1742389214.068927,946,1015,180
1742389214.0709276,1072,1048,180
1742389214.0709276,1070,1051,180
1742389214.0749276,1081,1063,180
1742389214.0759304,1070,1046,180
1742389214.0775259,1001,1011,180
1742389214.07962,1053,1033,180
1742389214.0806208,1057,1042,180
1742389214.0816233,1069,1050,180
1742389214.0836253,1077,1065,180
1742389214.0836253,1005,1056,180
1742389214.0866334,1090,1038,180
1742389214.0876365,1054,1033,180
1742389214.089685,1058,1038,180
1742389214.089685,1061,1040,180
1742389214.0945675,1072,1058,180
1742389214.0945675,1072,1063,180
1742389214.0956254,1069,934,180
1742389214.0966353,1059,1028,180
1742389214.0996356,1050,1021,180
1742389214.0996356,1060,1037,180
1742389214.103358,1068,1048,180
1742389214.1043184,1075,1050,180
1742389214.1053298,1073,1070,180
1742389214.1053298,1061,1045,180
1742389214.1083195,1053,1031,180
1742389214.1083195,1056,1032,180
1742389214.111317,1094,1032,180
1742389214.1123264,1068,1051,180
1742389214.1150186,1078,1071,180
1742389214.1160123,1074,1050,180
1742389214.118008,1054,1027,180
1742389214.119008,1053,1019,180
1742389214.1210039,1056,1036,180
1742389214.1210039,1057,1042,180
1742389214.124226,1073,1055,180
1742389214.124226,1078,1014,180
1742389214.1260076,1061,1037,180
1742389214.128008,1050,1053,180
1742389214.1290102,1052,1033,180
1742389214.1300085,1060,1036,180
1742389214.133011,1066,1044,180
1742389214.133011,1067,1058,180
1742389214.1357133,1073,1054,180
1742389214.1367068,1073,1030,180
1742389214.1387115,1055,1026,180
1742389214.1397076,1039,1031,180
1742389214.141711,1065,1040,180
1742389214.141711,1072,1056,180
1742389214.1447768,1079,1058,180
1742389214.1470435,1070,1043,180
1742389214.148048,1047,940,180
1742389214.1490498,1056,1031,180
1742389214.1510477,1128,1038,180
1742389214.1510477,1068,1041,180
1742389214.1540515,1148,1060,180
1742389214.1550512,1074,1054,180
1742389214.1570537,1063,1032,180
1742389214.1580472,1047,996,180
1742389214.1600463,1059,1029,180
1742389214.1600463,1065,1037,180
1742389214.1630569,1068,1045,180
1742389214.1640515,1076,1057,180
1742389214.1667583,1066,1047,180
1742389214.1677577,1057,1027,180
1742389214.1697595,1054,1026,180
1742389214.1707535,1058,1036,180
1742389214.1717684,1099,1019,180
1742389214.1727693,1081,1058,180
1742389214.1757503,1045,1053,180
1742389214.1763508,1067,1036,180
1742389214.178454,1037,1018,180
1742389214.1794517,1056,1029,180
1742389214.1814494,1060,1038,180
1742389214.1814494,1076,1045,180
1742389214.1844468,1082,1059,180
1742389214.1854525,1070,1048,180
1742389214.1874506,1056,1031,180
1742389214.1874506,1062,1032,180
1742389214.1904478,1061,1058,180
1742389214.1914496,1068,1041,180
1742389214.194447,1076,1053,180
1742389214.194447,1076,1067,180
1742389214.1971135,1066,1037,180
1742389214.1971135,1058,1100,180
1742389214.2001414,1055,1024,180
1742389214.2001414,1064,1042,180
1742389214.2041368,1069,1046,180
1742389214.2071354,1075,1060,180
1742389214.2077339,1072,1039,180
1742389214.2088268,1055,1029,180
1742389214.2098382,1052,1089,180
1742389214.2108326,1054,1033,180
1742389214.2118382,1066,1036,180
1742389214.2128296,1078,1055,180
1742389214.2148414,1079,988,180
1742389214.215827,1058,1038,180
1742389214.21742,1058,997,180
1742389214.2195203,1062,1021,180
1742389214.2204657,1062,917,180
1742389214.221516,1063,1041,180
1742389214.2245157,1051,1055,180
1742389214.2245157,1085,1058,180
1742389214.226527,1060,1041,180
1742389214.2275229,1054,1027,180
1742389214.2305195,1050,1029,180
1742389214.2305195,1064,1017,180
1742389214.233529,1070,1042,180
1742389214.2345276,1081,1053,180
1742389214.2365346,1072,1041,180
1742389214.2365346,1058,1022,180
1742389214.2395198,1054,1017,180
1742389214.2395198,1067,1026,180
1742389214.2431896,1069,1105,180
1742389214.2431896,1062,1048,180
1742389214.2462316,1074,1047,180
1742389214.248225,1098,1033,180
1742389214.2492156,1051,1014,180
1742389214.2502224,1055,1018,180
1742389214.2512152,1061,1031,180
1742389214.252217,1072,1039,180
1742389214.254941,1082,1049,180
1742389214.255942,1075,1037,180
1742389214.2579453,1062,1016,180
1742389214.258939,1052,1017,180
1742389214.260955,1064,1028,180
1742389214.260955,1095,1039,180
1742389214.2643187,1077,1032,180
1742389214.2649367,1061,1044,180
1742389214.2669458,1061,1037,180
1742389214.2669458,1053,1022,180
1742389214.2699416,1054,1021,180
1742389214.2709348,1062,1029,180
1742389214.2729394,1067,1043,180
1742389214.2729394,1078,1057,180
1742389214.2766342,1080,1047,180
1742389214.2766342,1064,1034,180
1742389214.2796383,1053,1016,180
1742389214.280639,1054,1030,180
1742389214.281651,1060,1036,180
1742389214.2826393,1077,1052,180
1742389214.2852669,1076,1044,180
1742389214.2863715,1065,1037,180
1742389214.28836,1058,1023,180
1742389214.2893622,1048,1025,180
1742389214.2913892,1062,1036,180
1742389214.292368,1066,1016,180
1742389214.2944953,1078,1058,180
1742389214.2953618,1075,1056,180
1742389214.2973113,1059,1019,180
1742389214.2973113,1055,1022,180
1742389214.300305,1058,1027,180
1742389214.3013659,1063,1105,180
1742389214.3033051,1016,1049,180
1742389214.3033051,1090,1064,180
1742389214.3069994,1068,991,180
1742389214.3069994,1051,1028,180
1742389214.3099954,1062,998,180
1742389214.3099954,1056,1040,180
1742389214.3129416,1062,1049,180
1742389214.3140004,1078,1061,180
1742389214.3156004,1077,1062,180
1742389214.3156004,1066,1040,180
1742389214.3187,1053,1030,180
1742389214.3187,1053,1030,180
1742389214.3217008,1064,1039,180
1742389214.3226995,1134,1053,180
1742389214.3247044,1076,1065,180
1742389214.3247044,1068,1057,180
1742389214.3277004,1057,1023,180
1742389214.3297017,1050,1036,180
1742389214.3307009,1058,1042,180
1742389214.332702,1103,1051,180
1742389214.3336937,1078,1068,180
1742389214.334694,1097,1065,180
1742389214.3373873,1073,1049,180
1742389214.338385,1055,1029,180
1742389214.3403854,1122,1032,180
1742389214.3413832,1059,1044,180
1742389214.3433821,1071,1054,180
1742389214.3433821,1080,1069,180
1742389214.346382,1071,1054,180
1742389214.3469837,1054,1040,180
1742389214.349078,1053,1034,180
1742389214.3501484,1050,1039,180
1742389214.3530245,1068,1042,180
1742389214.3540766,1077,1056,180
1742389214.3550777,1080,1072,180
1742389214.3566747,1070,1045,180
1742389214.3587692,1060,1030,180
1742389214.3587692,1058,1032,180
1742389214.3617747,1060,1040,180
1742389214.3627927,1076,1072,180
1742389214.364774,1082,1068,180
1742389214.3657696,1078,1055,180
1742389214.3677845,1062,1037,180
1742389214.3687723,1055,1031,180
1742389214.3707695,1062,1038,180
1742389214.37201,1066,1048,180
1742389214.373771,1080,1061,180
1742389214.373771,1084,1066,180
1742389214.3767924,1074,1050,180
1742389214.3777714,1053,1032,180
1742389214.3797681,1059,1032,180
1742389214.3797681,1066,1042,180
1742389214.3824985,1073,1049,180
1742389214.3824985,1082,1065,180
1742389214.3865008,1078,1050,180
1742389214.3865008,1038,1040,180
1742389214.3894613,1065,1032,180
1742389214.3904629,1064,1048,180
1742389214.3924625,1081,1048,180
1742389214.393127,1072,1060,180
1742389214.3952312,1086,1069,180
1742389214.3952312,1061,1052,180
1742389214.398229,1062,1032,180
1742389214.3992376,1034,1025,180
1742389214.4012187,1064,1057,180
1742389214.4012187,1082,1051,180
1742389214.4042227,1100,1068,180
1742389214.4062235,1081,1061,180
1742389214.407225,1064,1047,180
1742389214.4082344,1043,1036,180
1742389214.4102194,1062,1050,180
1742389214.4112358,1065,1043,180
1742389214.4129763,1076,1042,180
1742389214.4149218,1086,1071,180
1742389214.4169457,1076,1057,180
1742389214.4179325,1064,1035,180
1742389214.419865,1061,1032,180
1742389214.419865,1065,1038,180
1742389214.4229186,1067,1050,180
1742389214.4229186,1077,1067,180
1742389214.4256256,1085,1067,180
1742389214.4266157,1062,1048,180
1742389214.4286244,1055,1027,180
1742389214.4296257,1056,1068,180
1742389214.4316313,1068,1047,180
1742389214.43263,1074,1055,180
1742389214.4353304,1083,1066,180
1742389214.4353304,1077,1054,180
1742389214.437328,1064,1062,180
1742389214.4393275,1058,1031,180
1742389214.4403234,1023,1037,180
1742389214.4413233,1069,1095,180
1742389214.4443357,1080,1059,180
1742389214.4443357,1078,1068,180
1742389214.4473379,1072,1038,180
1742389214.4483256,1060,1028,180
1742389214.450343,1045,1032,180
1742389214.450343,1065,1040,180
1742389214.4533405,1071,1054,180
1742389214.4533405,1086,1057,180
1742389214.4563332,1083,1058,180
1742389214.4583247,1065,1036,180
1742389214.4583247,1060,1047,180
1742389214.460035,1078,1039,180
1742389214.462021,1075,1047,180
1742389214.4640234,1082,1060,180
1742389214.4660218,1077,1064,180
1742389214.4670243,1078,1054,180
1742389214.4680228,971,1018,180
1742389214.4680228,1087,1033,180
1742389214.4680228,1066,1033,180
1742389214.4727323,1077,1071,180
1742389214.473717,1088,1066,180
1742389214.4747162,1083,1058,180
1742389214.4767158,1071,1040,180
1742389214.4787166,1064,1034,180
1742389214.4787166,1093,1035,180
1742389214.4813654,1078,1046,180
1742389214.4824245,1071,1065,180
1742389214.4844131,1087,1065,180
1742389214.485418,1083,1057,180
1742389214.4864287,1071,1034,180
1742389214.487419,1064,1034,180
1742389214.4914212,1069,1044,180
1742389214.4924314,1076,1050,180
1742389214.4934254,1093,1068,180
1742389214.494414,1088,1069,180
1742389214.4964287,1077,1043,180
1742389214.497426,1085,1025,180
1742389214.4994228,1066,1038,180
1742389214.5004191,1072,1046,180
1742389214.5024166,1084,1059,180
1742389214.5034175,1088,1066,180
1742389214.5054207,1083,1054,180
1742389214.5054207,1073,1038,180
1742389214.5101225,1064,1058,180
1742389214.5101225,1071,1077,180
1742389214.5121322,1066,1046,180
1742389214.5131338,1079,1060,180
1742389214.515127,1088,1063,180
1742389214.515127,1020,1043,180
1742389214.5168054,1046,1030,180
1742389214.5188131,1067,1030,180
1742389214.5218148,1073,924,180
1742389214.5218148,1083,1051,180
1742389214.524817,1087,1065,180
1742389214.5258121,1022,1058,180
1742389214.5279343,1066,1041,180
1742389214.528878,1064,1034,180
1742389214.5298767,1070,1052,180
1742389214.5309296,1071,1044,180
1742389214.533935,1081,1062,180
1742389214.5349345,1069,1062,180
1742389214.5369468,1081,1045,180
1742389214.5375512,1029,1027,180
1742389214.5386496,1063,1030,180
1742389214.5386496,1072,1041,180
1742389214.5426562,1078,1051,180
1742389214.5426562,1088,1067,180
1742389214.5456543,1082,1056,180
1742389214.5456543,1067,1038,180
1742389214.5483422,1048,1030,180
1742389214.5483422,1069,1038,180
1742389214.5513444,1071,1042,180
1742389214.5513444,1080,1043,180
1742389214.5553477,1090,1045,180
1742389214.55635,1080,1021,180
1742389214.557945,1062,1030,180
1742389214.5600517,1070,1031,180
1742389214.5600517,1070,966,180
1742389214.5600517,1079,1047,180
1742389214.5640495,975,1062,180
1742389214.5650403,1085,1065,180
1742389214.5669858,1075,1048,180
1742389214.5680401,1063,1028,180
1742389214.5690417,1061,1036,180
1742389214.5700388,1057,1044,180
1742389214.5750093,1081,1051,180
1742389214.5769854,1107,1064,180
1742389214.5789924,1082,1049,180
1742389214.579986,1069,1031,180
1742389214.5809546,1064,1033,180
1742389214.5826716,1070,1038,180
1742389214.5835533,1079,1055,180
1742389214.5835533,1081,1058,180
1742389214.5845463,1079,1062,180
1742389214.5845463,1069,1047,180
1742389214.5905135,1095,1027,180
1742389214.5915134,1067,1032,180
1742389214.5950317,1071,1054,180
1742389214.5980318,1077,1032,180
1742389214.5990329,1090,1066,180
1742389214.5990329,1087,1048,180
1742389214.6000314,1077,1033,180
1742389214.6010318,1062,1024,180
1742389214.6010318,1062,1030,180
1742389214.6031425,1071,1044,180
1742389214.6031425,1075,1051,180
1742389214.6070316,1087,1087,180
1742389214.6120338,1077,1041,180
1742389214.6136134,1066,1029,180
1742389214.6145568,1064,991,180
1742389214.6165547,1078,1038,180
1742389214.6175556,1010,1046,180
1742389214.6185548,1124,1059,180
1742389214.6185548,1091,1053,180
1742389214.6225588,1103,1031,180
1742389214.6240668,1067,1019,180
1742389214.627075,1066,1030,180
1742389214.6300764,1076,1037,180
1742389214.6320758,1083,1051,180
1742389214.6320758,1087,1058,180
1742389214.6330748,1050,1049,180
1742389214.6330748,1061,1031,180
1742389214.6330748,1065,1026,180
1742389214.6330748,1070,1032,180
1742389214.634151,1075,1039,180
1742389214.634151,1086,1058,180
1742389214.634151,1088,1056,180
1742389214.6370776,1077,949,180
1742389214.6380806,1064,1028,180
1742389214.6430814,1068,1030,180
1742389214.6445925,1065,1034,180
1742389214.6476038,1082,1045,180
1742389214.6486032,1102,1060,180
1742389214.650607,1082,1051,180
1742389214.651604,1066,1030,180
1742389214.652602,1063,1028,180
1742389214.656123,1069,1034,180
1742389214.6591241,1073,1014,180
1742389214.661123,1086,1056,180
1742389214.664152,1088,1053,180
1742389214.664152,1076,1041,180
1742389214.664152,1066,1027,180
1742389214.6653643,1066,1029,180
1742389214.6653643,986,1046,180
1742389214.6671228,991,1034,180
1742389214.6671228,1090,1062,180
1742389214.668122,1086,1055,180
1742389214.675635,1070,1039,180
1742389214.677644,1064,1047,180
1742389214.6806433,1068,1036,180
1742389214.6816442,1077,1042,180
1742389214.6826453,1078,1056,180
1742389214.6871648,1089,1066,180
1742389214.6901634,1076,1049,180
1742389214.6921623,1051,1028,180
1742389214.6951635,1078,1025,180
1742389214.6951635,1084,1038,180
1742389214.6951635,1074,1079,180
1742389214.6951635,1084,1062,180
1742389214.6976845,1084,1061,180
1742389214.6986856,1070,1034,180
1742389214.6986856,1069,1026,180
1742389214.6996834,1061,1035,180
1742389214.7036843,1067,1040,180
1742389214.7056847,1088,1049,180
1742389214.7086859,1087,1058,180
1742389214.7096841,1085,1045,180
1742389214.7126844,1040,1028,180
1742389214.713686,1122,926,180
1742389214.713686,1067,1037,180
1742389214.7146852,1073,1047,180
1742389214.7156842,1085,1058,180
1742389214.7156842,1046,1059,180
1742389214.7176838,1027,1035,180
1742389214.7196834,1060,1032,180
1742389214.7222495,1062,1028,180
1742389214.726204,1072,1043,180
1742389214.7272012,1080,1050,180
1742389214.7302005,1083,1054,180
1742389214.7302005,1083,1050,180
1742389214.7312012,1133,1016,180
1742389214.7312012,1069,1006,180
1742389214.7357178,1067,1028,180
1742389214.7377198,1074,1034,180
1742389214.740722,1082,1056,180
1742389214.7417195,1072,1058,180
1742389214.7417195,1072,1039,180
1742389214.743722,1101,1034,180
1742389214.7447212,1073,1028,180
1742389214.7447212,1069,1040,180
1742389214.745719,1080,1050,180
1742389214.7497199,1096,1062,180
1742389214.75172,1086,1051,180
1742389214.755236,1076,1031,180
1742389214.7572374,1062,1028,180
1742389214.7592342,1070,1033,180
1742389214.7592342,1058,1046,180
1742389214.763745,1083,1052,180
1742389214.764754,1085,1062,180
1742389214.7687542,1071,1046,180
1742389214.7717533,1061,1023,180
1742389214.7727542,1053,1028,180
1742389214.7738917,1065,1033,180
1742389214.7747552,1073,1043,180
1742389214.7757537,1082,1061,180
1742389214.7797527,1082,1053,180
1742389214.7807539,1072,1034,180
1742389214.7827525,1064,1024,180
1742389214.7852683,1137,1002,180
1742389214.7872694,1073,1042,180
1742389214.7872694,1080,1061,180
1742389214.7882679,1087,1060,180
1742389214.7882679,1075,1043,180
1742389214.7892683,1060,1030,180
1742389214.7892683,1062,971,180
1742389214.7892683,1068,1060,180
1742389214.7902706,1040,1060,180
1742389214.791268,1086,1059,180
1742389214.794778,1041,1055,180
1742389214.7957902,1075,1047,180
1742389214.7987874,1063,1022,180
1742389214.7997875,1062,1076,180
1742389214.801789,1072,1037,180
1742389214.8027873,1076,1052,180
1742389214.8037882,1086,1058,180
1742389214.8037882,1076,1050,180
1742389214.8049288,1061,1031,180
1742389214.8049288,1061,1027,180
1742389214.8049288,1067,1033,180
1742389214.8057926,1076,1040,180
1742389214.806793,1082,1001,180
1742389214.806793,1082,1061,180
1742389214.8087897,1074,1037,180
1742389214.8097856,1066,1019,180
1742389214.811786,1067,1026,180
1742389214.8127866,1069,1038,180
1742389214.8137863,1077,1034,180
1742389214.8152962,1086,1071,180
1742389214.8152962,1046,1051,180
1742389214.8152962,1064,1032,180
1742389214.816305,1062,1057,180
1742389214.816305,1078,1037,180
1742389214.817306,1034,1039,180
1742389214.8183048,1082,1054,180
1742389214.8193047,1086,1058,180
1742389214.821307,1075,1042,180
1742389214.8233087,1021,1010,180
1742389214.8258176,1067,1027,180
1742389214.8268282,1032,1033,180
1742389214.8268282,1076,1044,180
1742389214.82783,1082,1061,180
1742389214.82783,1076,1053,180
1742389214.828831,1068,1031,180
1742389214.8298283,1046,1024,180
1742389214.8318295,1061,1030,180
1742389214.8348286,1062,1036,180
1742389214.8359475,1080,940,180
1742389214.8378286,1082,1055,180
1742389214.8378286,1074,1040,180
1742389214.8378286,1078,1020,180
1742389214.8388274,1062,1022,180
1742389214.8428278,1067,1026,180
1742389214.843828,1073,1071,180
1742389214.8448305,1069,1059,180
1742389214.8463416,1080,1052,180
1742389214.8473508,1068,1016,180
1742389214.8493526,1061,1025,180
1742389214.850353,1058,1033,180
1742389214.852353,1070,1037,180
1742389214.8553536,1079,1048,180
1742389214.857874,1086,1056,180
1742389214.8588727,1079,1043,180
1742389214.8588727,1067,1027,180
1742389214.8618724,1063,1024,180
1742389214.8618724,1071,1031,180
1742389214.8628721,1070,1039,180
1742389214.8628721,1086,1056,180
1742389214.8673825,1084,1057,180
1742389214.8693936,1072,1035,180
1742389214.8713932,1076,1025,180
1742389214.8733914,1098,1010,180
1742389214.8743925,1069,1035,180
1742389214.8763936,1075,1050,180
1742389214.8763936,1070,1059,180
1742389214.8763936,1083,1048,180
1742389214.878393,1066,1021,180
1742389214.881391,1086,1019,180
1742389214.8824878,1064,917,180
1742389214.884392,1073,1038,180
1742389214.8863907,1072,1054,180
1742389214.8873906,1083,1058,180
1742389214.888392,1071,1037,180
1742389214.888392,1057,1020,180
1742389214.890392,1086,1026,180
1742389214.892901,1064,1025,180
1742389214.8939085,1100,1047,180
1742389214.8959095,1089,1059,180
1742389214.8989103,1081,1076,180
1742389214.8999093,1071,1029,180
1742389214.8999093,1066,1026,180
1742389214.90342,1072,1030,180
1742389214.9044297,1076,1039,180
1742389214.9064264,1083,1045,180
1742389214.9074273,1086,1059,180
1742389214.9084275,1074,1042,180
1742389214.9084275,1068,1032,180
1742389214.9094276,1067,1050,180
1742389214.9124284,1107,1004,180
1742389214.9135551,1079,1050,180
1742389214.9154294,1089,1071,180
1742389214.916429,1091,1102,180
1742389214.9174278,1078,966,180
1742389214.9184275,1062,1034,180
1742389214.9214275,1074,1045,180
1742389214.9239333,1074,1050,180
1742389214.9269438,1084,1062,180
1742389214.927944,1089,1080,180
1742389214.9289412,1077,1064,180
1742389214.930943,1065,1039,180
1742389214.9319425,1061,1035,180
1742389214.9319425,1065,1044,180
1742389214.932941,1068,1053,180
1742389214.934449,1084,1068,180
1742389214.9364576,1095,1068,180
1742389214.9374595,1070,978,180
1742389214.9394596,1058,1029,180
1742389214.9414577,970,1034,180
1742389214.942458,1068,1044,180
1742389214.942458,1080,1055,180
1742389214.9454584,1081,1062,180
1742389214.9474587,1079,1056,180
1742389214.9484575,1059,1038,180
1742389214.9504585,1061,1032,180
1742389214.9514592,1065,1060,180
1742389214.9534588,1076,1044,180
1742389214.9534588,1076,1056,180
1742389214.9534588,1082,1069,180
1742389214.9569767,1074,1046,180
1742389214.9579737,1098,1026,180
1742389214.959975,1065,1032,180
1742389214.960974,1067,1046,180
1742389214.9629748,1075,1053,180
1742389214.9639747,1079,1064,180
1742389214.96649,1087,1060,180
1742389214.9694917,1071,1033,180
1742389214.9714885,1064,1005,180
1742389214.972488,1062,1052,180
1742389214.9734883,1086,1043,180
1742389214.9744883,1085,1055,180
1742389214.9755886,1091,1061,180
1742389214.976488,1080,1048,180
1742389214.97849,1069,1033,180
1742389214.9804897,1071,1032,180
1742389214.98249,1076,1044,180
1742389214.9834893,1080,1053,180
1742389214.984491,1088,1071,180
1742389214.9859989,1084,1064,180
1742389214.9880068,1066,1045,180
1742389214.9900086,1066,1032,180
1742389214.9910076,1078,1038,180
1742389214.9930077,1073,1048,180
1742389214.9940062,1083,1060,180
1742389214.9950075,1094,1066,180
1742389214.9965158,1083,1053,180
1742389214.9975257,1069,1028,180
1742389214.9995234,1062,987,180
1742389215.0015235,1068,1036,180
1742389215.0035222,1072,1049,180
1742389215.0035222,1085,1064,180
1742389215.0055237,1089,1060,180
1742389215.0080364,1067,1042,180
1742389215.0090363,1058,1024,180
1742389215.010038,1058,1035,180
1742389215.0120397,1062,1040,180
1742389215.0150378,1079,1057,180
1742389215.0160372,1090,1062,180
1742389215.0180383,1054,1054,180
1742389215.0200374,1063,1034,180
1742389215.0210385,1056,1025,180
1742389215.0210385,1065,1029,180
1742389215.0221567,1023,1027,180
1742389215.0250397,1078,1051,180
1742389215.0250397,1108,1056,180
1742389215.0270364,1068,1035,180
1742389215.0290418,1052,1018,180
1742389215.0300367,1053,1020,180
1742389215.031039,1074,1020,180
1742389215.033555,1069,1038,180
1742389215.035556,1085,1046,180
1742389215.0365546,1089,1038,180
1742389215.0385563,1063,1065,180
1742389215.039556,1055,1008,180
1742389215.0405557,1056,1021,180
1742389215.0430627,1074,1028,180
1742389215.0450733,1078,1044,180
1742389215.0460722,1070,1044,180
1742389215.0480716,1069,1032,180
1742389215.0490723,1059,1018,180
1742389215.0500724,1062,1019,180
1742389215.0520732,1053,1027,180
1742389215.053189,1074,1033,180
1742389215.055073,1086,1053,180
1742389215.057072,1102,1039,180
1742389215.0580719,1074,1025,180
1742389215.0580719,1072,1021,180
1742389215.0620706,1069,1024,180
1742389215.0620706,1070,1035,180
1742389215.064586,1077,1050,180
1742389215.064586,1147,1058,180
1742389215.0675848,1079,1067,180
1742389215.0675848,1064,1034,180
1742389215.0705853,1072,1022,180
1742389215.0725868,1072,1037,180
1742389215.0725868,1082,1043,180
1742389215.075105,1090,1058,180
1742389215.0761042,1090,1052,180
1742389215.077104,1077,1037,180
1742389215.0791047,1054,1028,180
1742389215.080105,1078,995,180
1742389215.080105,1080,1036,180
1742389215.0851047,1090,1054,180
1742389215.0881052,1098,1061,180
1742389215.089105,1090,1048,180
1742389215.0911052,1078,1032,180
1742389215.092105,1072,1030,180
1742389215.092105,1078,1033,180
1742389215.0931027,1093,1041,180
1742389215.0956204,1099,1057,180
1742389215.0966203,1098,1058,180
1742389215.0986204,1088,1035,180
1742389215.1006203,1080,1023,180
1742389215.1026192,1082,1032,180
1742389215.1026192,1086,1038,180
1742389215.1036208,1086,1054,180
1742389215.1051285,1101,1068,180
1742389215.1081367,1090,1045,180
1742389215.1101353,1078,1033,180
1742389215.1111352,1010,1029,180
1742389215.1111352,1080,1038,180
1742389215.1121356,1082,1060,180
1742389215.1131356,1096,1062,180
1742389215.1141362,1101,1064,180
1742389215.1181388,1085,1042,180
1742389215.1191397,1073,1031,180
1742389215.122137,1072,1034,180
1742389215.1241376,1080,1041,180
1742389215.1256456,1108,1049,180
1742389215.1256456,1093,1067,180
1742389215.1256456,1094,1063,180
1742389215.1266556,1074,1039,180
1742389215.1306531,1073,1039,180
1742389215.1316545,1075,948,180
1742389215.133658,1079,1043,180
1742389215.134656,1091,1057,180
1742389215.1361632,1097,1064,180
1742389215.1371734,1088,1063,180
1742389215.1391733,1070,1033,180
1742389215.1411715,1059,1032,180
1742389215.1431725,1068,1034,180
1742389215.1441715,1080,1144,180
1742389215.1466799,1091,1069,180
1742389215.1466799,982,1072,180
1742389215.1476915,1011,1041,180
1742389215.1486886,1064,1031,180
1742389215.1506908,1071,1038,180
1742389215.152689,994,1051,180
1742389215.15469,1083,1056,180
1742389215.1556907,1101,1067,180
1742389215.1576917,1096,1053,180
1742389215.158691,1015,948,180
1742389215.1596882,1066,1006,180
1742389215.1596882,1069,1034,180
1742389215.163689,1066,1028,180
1742389215.1656914,1085,1062,180
1742389215.1676886,1116,1064,180
1742389215.1696916,1081,1047,180
1742389215.1706908,1062,1028,180
1742389215.1722028,1068,1035,180
1742389215.1722028,1068,1044,180
1742389215.1722028,1056,1049,180
1742389215.1752148,1094,1066,180
1742389215.176213,1046,1054,180
1742389215.1782146,1070,1038,180
1742389215.1792128,1059,1029,180
1742389215.1812139,1071,1032,180
1742389215.1827214,1071,1027,180
1742389215.1837306,1084,1056,180
1742389215.1837306,1088,1052,180
1742389215.18773,1078,1052,180
1742389215.1887295,1062,1031,180
1742389215.19073,1060,1032,180
1742389215.19073,1049,1048,180
1742389215.1937332,1074,1054,180
1742389215.19573,1087,1070,180
1742389215.1967294,1087,1059,180
1742389215.1987307,1059,1037,180
1742389215.2007308,1059,1079,180
1742389215.2007308,1060,1055,180
1742389215.201731,1072,1039,180
1742389215.201731,1081,1059,180
1742389215.2052495,1082,1064,180
1742389215.207247,1079,1052,180
1742389215.2092469,1059,1032,180
1742389215.2122476,1063,1032,180
1742389215.2122476,1065,1039,180
1742389215.2137582,1073,1056,180
1742389215.2137582,1142,1058,180
1742389215.2147698,1092,1064,180
1742389215.2187681,1076,1041,180
1742389215.2197678,1074,1027,180
1742389215.2217674,1063,1032,180
1742389215.22386,1069,1044,180
1742389215.2247677,1080,1060,180
1742389215.2247677,1091,1066,180
1742389215.226766,1088,1053,180
1742389215.2287703,1066,1038,180
1742389215.2307687,1060,1035,180
1742389215.2327683,1064,1045,180
1742389215.234275,1078,1060,180
1742389215.234275,1090,1069,180
1742389215.2352839,1090,1062,180
1742389215.2362888,1073,1047,180
1742389215.2402868,1067,1034,180
1742389215.2422833,1068,1037,180
1742389215.2432823,1115,1040,180
1742389215.2458012,1081,1001,180
1742389215.2468014,1090,1072,180
1742389215.2478037,1086,1064,180
1742389215.2478037,1076,1006,180
1742389215.2488115,1066,1034,180
1742389215.2508035,1069,1046,180
1742389215.2518013,1075,1052,180
1742389215.2548933,1088,1066,180
1742389215.2558029,1097,1066,180
1742389215.2588027,1083,1048,180
1742389215.2608013,1072,1048,180
1742389215.2617989,1096,1033,180
1742389215.2637992,1081,1048,180
1742389215.266313,1087,1059,180
1742389215.2683156,1084,1070,180
1742389215.2693155,1093,1066,180
1742389215.2693155,1080,1050,180
1742389215.2703137,1077,1039,180
1742389215.2713163,1080,1049,180
1742389215.2733111,1086,1049,180
1742389215.2743123,1095,1061,180
1742389215.2758198,1104,1082,180
1742389215.2768257,1099,1048,180
1742389215.2788267,1087,1036,180
1742389215.2798264,1084,1040,180
1742389215.2818282,1088,1051,180
1742389215.2838283,1095,1028,180
1742389215.2848291,1105,1074,180
1742389215.2868276,1103,1069,180
1742389215.2888274,1094,1060,180
1742389215.289828,1084,1049,180
1742389215.289828,1088,1049,180
1742389215.2908282,1095,1060,180
1742389215.2948258,1105,1074,180
1742389215.29734,1108,1078,180
1742389215.29734,1103,1017,180
1742389215.2983413,1097,1050,180
1742389215.3013399,1097,1047,180
1742389215.3023407,1096,1014,180
1742389215.3053398,1105,1061,180
1742389215.3053398,1110,1082,180
1742389215.3078532,1102,1075,180
1742389215.3088577,1094,1061,180
timestamp,forearm_sEMG,upperarm_sEMG,joint_angle
1742389326.368791,541,1364,160
1742389326.368791,560,1388,160
1742389326.373791,552,1415,160
1742389326.3747885,544,1422,160
1742389326.3757899,538,1417,160
1742389326.3757899,545,1388,160
1742389326.3783312,549,1378,160
1742389326.3783312,548,1382,160
1742389326.3823411,548,1266,160
1742389326.385307,568,1374,160
1742389326.3863063,538,1368,160
1742389326.389826,539,1343,160
1742389326.3908226,534,1330,160
1742389326.3908226,539,1323,160
1742389326.3918226,536,1356,160
1742389326.3958244,563,1347,160
1742389326.3968227,541,1352,160
1742389326.3998241,536,1330,160
1742389326.4008212,538,1306,160
1742389326.4008212,538,1310,160
1742389326.403826,541,1318,160
1742389326.4048233,548,1320,160
1742389326.4048233,557,1336,160
1742389326.4048233,543,1354,160
1742389326.4068294,540,1338,160
1742389326.4068294,547,1312,160
1742389326.407861,546,1306,160
1742389326.4098463,553,1318,160
1742389326.4098463,558,1325,160
1742389326.411839,563,1336,160
1742389326.411839,556,1340,160
1742389326.4133477,531,1318,160
1742389326.4143574,542,1296,160
1742389326.415378,620,1308,160
1742389326.418443,593,1308,160
1742389326.4195042,555,1318,160
1742389326.4214833,555,1334,160
1742389326.4214833,551,1330,160
1742389326.4239385,543,1274,160
1742389326.4249892,566,1292,160
1742389326.4269817,537,1185,160
1742389326.4280412,541,1256,160
1742389326.4300385,548,1320,160
1742389326.4300385,547,1348,160
1742389326.434024,548,1280,160
1742389326.434024,538,1330,160
1742389326.434024,532,1303,160
1742389326.436964,537,1303,160
1742389326.436964,528,1311,160
1742389326.4390676,550,1341,160
1742389326.4400692,575,1358,160
1742389326.4430637,553,1322,160
1742389326.4430637,547,1360,160
1742389326.4457908,541,1334,160
1742389326.4457908,547,1332,160
1742389326.4487965,544,1349,160
1742389326.4487965,538,1364,160
1742389326.4517086,540,1391,160
1742389326.4517086,515,1401,160
1742389326.4543777,535,1398,160
1742389326.4555025,528,1368,160
1742389326.457517,526,1369,160
1742389326.458504,527,1384,160
1742389326.458504,551,1395,160
1742389326.4615102,544,1421,160
1742389326.4615102,548,1426,160
1742389326.464829,542,1407,160
1742389326.4655054,500,1383,160
1742389326.467507,535,1362,160
1742389326.467507,540,1383,160
1742389326.4695117,544,1394,160
1742389326.4705112,541,1419,160
1742389326.472502,539,1430,160
1742389326.4735024,532,1425,160
1742389326.4762588,528,1403,160
1742389326.4772587,479,1397,160
1742389326.4792576,530,1400,160
1742389326.480257,532,1408,160
1742389326.4812675,528,1427,160
1742389326.4822648,532,1436,160
1742389326.4822648,522,1416,160
1742389326.4858875,517,1388,160
1742389326.487017,521,1381,160
1742389326.4880173,523,1391,160
1742389326.4890165,612,1408,160
1742389326.4910183,515,1436,160
1742389326.4910183,536,1391,160
1742389326.4948967,527,1400,160
1742389326.4948967,460,1375,160
1742389326.4975305,521,1372,160
1742389326.4975305,554,1373,160
1742389326.500534,539,1418,160
1742389326.5025418,547,1398,160
1742389326.5035412,546,1402,160
1742389326.5045967,544,1396,160
1742389326.5063608,568,1394,160
1742389326.5063608,554,1373,160
1742389326.507382,561,1387,160
1742389326.5103645,566,1401,160
1742389326.5123715,571,1424,160
1742389326.5123715,566,1429,160
1742389326.513373,565,1406,160
1742389326.516128,567,1387,160
1742389326.516128,570,1388,160
1742389326.5191226,583,1394,160
1742389326.5201237,572,1400,160
1742389326.5221322,589,1424,160
1742389326.5221322,585,1435,160
1742389326.5250401,576,1424,160
1742389326.526405,562,1408,160
1742389326.5274007,570,1405,160
1742389326.5283225,578,1400,160
1742389326.529312,579,1433,160
1742389326.5313077,577,1400,160
1742389326.5313077,573,1461,160
1742389326.5348763,572,1438,160
1742389326.5359209,557,1415,160
1742389326.5369246,564,1432,160
1742389326.5389245,567,1438,160
1742389326.5399187,565,1451,160
1742389326.5419219,572,1471,160
1742389326.5429263,565,1454,160
1742389326.54392,586,1437,160
1742389326.5465124,455,1421,160
1742389326.5465124,561,1414,160
1742389326.5495152,568,1417,160
1742389326.5495152,563,1447,160
1742389326.5505087,570,1443,160
1742389326.552517,565,1446,160
1742389326.5545173,554,1427,160
1742389326.5565126,560,1406,160
1742389326.5575135,560,1404,160
1742389326.5595257,557,1406,160
1742389326.5605118,563,1417,160
1742389326.5615127,568,1433,160
1742389326.5625134,555,1428,160
1742389326.5635133,562,1398,160
1742389326.5661051,560,1377,160
1742389326.5681033,598,1370,160
1742389326.5691028,571,1378,160
1742389326.5711172,573,1386,160
1742389326.5711172,570,1398,160
1742389326.572099,561,1383,160
1742389326.5741918,567,1355,160
1742389326.5751908,557,1333,160
1742389326.5769496,551,1325,160
1742389326.5789602,543,1323,160
1742389326.579955,564,1326,160
1742389326.5809577,556,1334,160
1742389326.5839593,584,1325,160
1742389326.5859542,554,1307,160
1742389326.5859542,554,1281,160
1742389326.5879576,557,1286,160
1742389326.5889518,557,1292,160
1742389326.5899587,559,1298,160
1742389326.5918612,588,1319,160
1742389326.5918612,541,1326,160
1742389326.5953398,550,1328,160
1742389326.5953398,546,1272,160
1742389326.5953398,558,1280,160
1742389326.5983803,515,1292,160
1742389326.5993793,579,1316,160
1742389326.6013985,567,1336,160
1742389326.6023822,565,1328,160
1742389326.6043477,555,1304,160
1742389326.6043477,554,1284,160
1742389326.6068597,553,1286,160
1742389326.6088636,555,1372,160
1742389326.610987,552,1301,160
1742389326.610987,549,1326,160
1742389326.6138952,544,1224,160
1742389326.6148953,538,1299,160
1742389326.6168628,536,1284,160
1742389326.6179945,528,1286,160
1742389326.6179945,543,1292,160
1742389326.619869,545,1309,160
1742389326.6208615,549,1334,160
1742389326.6228602,579,1337,160
1742389326.6238601,531,1304,160
1742389326.6263678,527,1286,160
1742389326.627375,527,1284,160
1742389326.6283743,526,1321,160
1742389326.6293747,529,1308,160
1742389326.6334164,539,1332,160
1742389326.6345108,537,1326,160
1742389326.6354918,518,1306,160
1742389326.6371236,530,1292,160
1742389326.6381314,536,1295,160
1742389326.6381314,625,1304,160
1742389326.6412506,546,1320,160
1742389326.6412506,572,1341,160
1742389326.6412506,544,1338,160
1742389326.6442542,446,1315,160
1742389326.6452532,542,1295,160
1742389326.6468782,541,1298,160
1742389326.6490135,525,1311,160
1742389326.650018,542,1343,160
1742389326.6520092,546,1341,160
1742389326.653005,550,1334,160
1742389326.6540117,540,1307,160
1742389326.6560192,534,1293,160
1742389326.6560192,526,1297,160
1742389326.6590106,533,1324,160
1742389326.660011,533,1290,160
1742389326.6621366,546,1316,160
1742389326.664013,539,1320,160
1742389326.664013,534,1296,160
1742389326.666014,539,1282,160
1742389326.6670096,511,1294,160
1742389326.6690054,528,1286,160
1742389326.6690054,525,1302,160
1742389326.6710212,528,1302,160
1742389326.673784,504,1280,160
1742389326.6747804,514,1256,160
1742389326.675786,493,1241,160
1742389326.6777437,508,1257,160
1742389326.6787534,516,1253,160
1742389326.6807785,518,1262,160
1742389326.6807785,529,1266,160
1742389326.6833453,520,1254,160
1742389326.684454,520,1229,160
1742389326.6864371,516,1205,160
1742389326.687441,514,1227,160
1742389326.6884398,511,1244,160
1742389326.689447,536,1263,160
1742389326.689447,509,1279,160
1742389326.693446,502,1252,160
1742389326.6944377,470,1266,160
1742389326.6954217,499,1234,160
1742389326.6964438,511,1199,160
1742389326.699445,552,1245,160
1742389326.7004392,516,1266,160
1742389326.7021818,534,1288,160
1742389326.7031286,547,1298,160
1742389326.705133,505,1264,160
1742389326.705133,512,1246,160
1742389326.7090793,510,1253,160
1742389326.7090793,519,1273,160
1742389326.7100775,527,1280,160
1742389326.7111092,531,1308,160
1742389326.712737,525,1299,160
1742389326.7138596,517,1364,160
1742389326.7158585,514,1265,160
1742389326.7178676,516,1273,160
1742389326.7188604,536,1280,160
1742389326.7198768,528,1296,160
1742389326.7221005,539,1326,160
1742389326.7238655,537,1320,160
1742389326.7248614,530,1296,160
1742389326.7258756,563,1291,160
1742389326.7268646,454,1295,160
1742389326.72986,545,1285,160
1742389326.72986,548,1327,160
1742389326.732614,550,1292,160
1742389326.732614,543,1332,160
1742389326.7336066,535,1308,160
1742389326.7355418,533,1295,160
1742389326.7365956,559,1306,160
1742389326.7385933,540,1317,160
1742389326.7396107,546,1345,160
1742389326.7415936,554,1363,160
1742389326.7432137,552,1368,160
1742389326.7453241,548,1387,160
1742389326.746325,556,1339,160
1742389326.7482429,576,1345,160
1742389326.7493155,565,1404,160
1742389326.751315,569,1411,160
1742389326.751315,571,1404,160
1742389326.75432,583,1398,160
1742389326.75432,566,1388,160
1742389326.75432,567,1364,160
1742389326.7583084,566,1361,160
1742389326.7593153,569,1352,160
1742389326.7613132,577,1361,160
1742389326.7613132,578,1383,160
